timestamp,formatted_time,emg1,emg2,emg3,emg4,emg5,emg6,emg7,emg8
81974456,01-01 16:46:14:456,3,4,8,-4,7,1,-5,0
81974515,01-01 16:46:14:515,-3,9,6,-1,2,-2,-6,0
81974560,01-01 16:46:14:560,-14,-19,-95,-23,0,0,5,1
81974605,01-01 16:46:14:605,2,3,0,1,-2,6,1,2
81974665,01-01 16:46:14:665,2,1,35,-1,-7,-20,-25,-4
81974717,01-01 16:46:14:717,0,-1,9,-1,1,8,-2,-1
81974765,01-01 16:46:14:765,0,16,-4,-3,-1,3,7,3
81974822,01-01 16:46:14:822,3,26,23,-5,-1,3,0,-2
81974861,01-01 16:46:14:861,-1,-37,103,-4,-9,-1,1,0
81974905,01-01 16:46:14:905,-11,-33,-39,-15,-4,-1,-2,-4
81974965,01-01 16:46:14:965,-46,52,101,41,3,2,0,-4
81975024,01-01 16:46:15:24,6,-19,10,-17,-2,-3,-3,-2
81975077,01-01 16:46:15:77,8,13,-30,21,11,3,1,0
81975122,01-01 16:46:15:122,-2,-27,24,8,-1,-1,1,-1
81975182,01-01 16:46:15:182,-3,10,17,-1,-1,-2,-1,-1
81975221,01-01 16:46:15:221,6,41,42,15,14,7,7,2
81975281,01-01 16:46:15:281,-5,12,17,3,-1,1,2,0
81975324,01-01 16:46:15:324,2,-7,-21,-18,-1,-1,2,-2
81975385,01-01 16:46:15:385,-9,9,-40,-5,-3,-3,-3,-3
81975432,01-01 16:46:15:432,18,-34,16,-3,-4,-6,-3,0
81975483,01-01 16:46:15:483,-1,14,-83,-8,1,1,2,-1
81975529,01-01 16:46:15:529,4,-17,30,-41,-11,-5,-2,-1
81975588,01-01 16:46:15:588,11,18,4,-3,-1,-1,-2,0
81975626,01-01 16:46:15:626,-9,-2,-14,11,4,-1,-1,-2
81975686,01-01 16:46:15:686,0,-15,-35,-4,-3,-4,-1,0
81975723,01-01 16:46:15:723,-16,-15,-14,-8,4,-1,-5,-3
81975783,01-01 16:46:15:783,6,8,26,7,1,-1,3,-2
81975843,01-01 16:46:15:843,-33,58,-6,-21,-17,-7,-2,-3
81975889,01-01 16:46:15:889,11,35,-1,20,13,8,7,5
81975926,01-01 16:46:15:926,-4,5,53,18,9,6,5,5
81975986,01-01 16:46:15:986,2,-18,-53,-14,-4,9,8,9
81976046,01-01 16:46:16:46,17,-11,-2,1,8,4,28,-2
81976083,01-01 16:46:16:83,35,-9,24,6,0,-1,-27,-4
81976144,01-01 16:46:16:144,8,-15,0,-1,-4,-17,-13,-7
81976189,01-01 16:46:16:189,9,-46,-2,-7,-5,-16,-43,-68
81976249,01-01 16:46:16:249,9,12,22,-1,-5,-23,-21,7
81976286,01-01 16:46:16:286,-11,1,-20,-6,-8,4,3,11
81976345,01-01 16:46:16:345,15,-14,17,5,-2,-2,-6,2
81976391,01-01 16:46:16:391,-4,-26,11,-4,-8,-21,-12,-3
81976451,01-01 16:46:16:451,-9,76,58,20,0,1,15,10
81976490,01-01 16:46:16:490,6,-33,14,5,2,-18,-11,-2
81976550,01-01 16:46:16:550,0,-76,-113,-14,-7,-2,-5,-5
81976608,01-01 16:46:16:608,0,-11,-64,-32,-20,-13,-6,-3
81976652,01-01 16:46:16:652,-16,-36,21,4,2,2,-4,-7
81976705,01-01 16:46:16:705,-1,-4,-82,4,-6,1,-1,-2
81976752,01-01 16:46:16:752,5,10,50,24,13,5,-1,0
81976812,01-01 16:46:16:812,-2,0,36,12,-4,-4,-1,-3
81976850,01-01 16:46:16:850,-5,-17,29,8,-9,-3,-2,-2
81976910,01-01 16:46:16:910,4,-3,6,-12,-1,0,-2,-1
81976953,01-01 16:46:16:953,2,-13,-119,-13,-7,0,-1,-2
81977013,01-01 16:46:17:13,5,16,7,0,5,3,1,3
81977065,01-01 16:46:17:65,1,8,21,-1,4,1,0,-2
81977112,01-01 16:46:17:112,-8,-24,-43,5,9,-15,-10,-3
81977150,01-01 16:46:17:150,3,8,55,-6,-8,-14,2,-21
81977210,01-01 16:46:17:210,-24,32,51,1,-9,-1,-29,-11
81977270,01-01 16:46:17:270,8,28,8,-3,-6,5,49,31
81977328,01-01 16:46:17:328,-15,-4,-60,0,-8,-7,-8,-23
81977373,01-01 16:46:17:373,2,-5,11,0,3,13,14,1
81977425,01-01 16:46:17:425,17,40,14,-1,-5,-7,2,12
81977472,01-01 16:46:17:472,19,-58,-52,8,17,16,1,-3
81977533,01-01 16:46:17:533,27,31,18,8,6,19,10,7
81977575,01-01 16:46:17:575,15,5,26,0,-12,-2,1,-19
81977635,01-01 16:46:17:635,-19,23,30,0,-10,-7,-2,1
81977675,01-01 16:46:17:675,1,-4,63,6,0,-4,-2,4
81977735,01-01 16:46:17:735,8,7,14,16,10,3,2,6
81977773,01-01 16:46:17:773,-26,-18,-9,-19,-2,0,0,-16
81977833,01-01 16:46:17:833,1,21,45,20,0,3,7,7
81977892,01-01 16:46:17:892,4,3,18,-3,2,3,23,2
81977936,01-01 16:46:17:936,10,-1,-60,3,4,4,23,27
81977987,01-01 16:46:17:987,-11,-8,-1,-1,-1,-1,-1,-4
81978042,01-01 16:46:18:42,-9,-10,32,-20,-9,-1,0,10
81978095,01-01 16:46:18:95,-9,-11,26,12,4,4,0,-1
81978132,01-01 16:46:18:132,2,-3,39,11,0,-2,-2,-4
81978192,01-01 16:46:18:192,7,-5,-73,-35,-22,-15,-5,1
81978250,01-01 16:46:18:250,-5,24,43,2,11,17,7,-4
81978296,01-01 16:46:18:296,-5,-45,-21,-5,-3,14,-19,-68
81978335,01-01 16:46:18:335,5,-8,-86,-15,-12,13,10,-33
81978395,01-01 16:46:18:395,23,17,0,1,0,-5,-34,32
81978453,01-01 16:46:18:453,3,23,-37,9,5,-1,14,-7
81978497,01-01 16:46:18:497,-17,31,11,6,5,6,13,-9
81978550,01-01 16:46:18:550,-5,8,17,-4,3,5,1,3
81978597,01-01 16:46:18:597,3,-36,20,-1,-3,-17,-9,-3
81978656,01-01 16:46:18:656,-4,-51,-52,8,5,-7,-9,-12
81978693,01-01 16:46:18:693,-1,-19,-2,-3,-2,-2,-5,-5
81978753,01-01 16:46:18:753,8,8,43,-10,-2,2,0,2
81978814,01-01 16:46:18:814,2,-53,-29,-8,-6,-10,-4,0
81978857,01-01 16:46:18:857,-8,-31,-68,-10,-6,-5,-1,-2
81978910,01-01 16:46:18:910,-9,-9,-62,-15,-1,0,1,1
81978956,01-01 16:46:18:956,7,20,80,16,2,1,0,0
81979016,01-01 16:46:19:16,-4,-17,-28,6,0,2,1,-2
81979055,01-01 16:46:19:55,-12,-22,-33,-25,-4,0,-1,0
81979113,01-01 16:46:19:113,-7,-13,-4,2,-2,-13,-9,-5
81979157,01-01 16:46:19:157,1,13,45,10,12,2,5,13
81979210,01-01 16:46:19:210,-5,-12,-16,-9,-14,-15,-6,-6
81979270,01-01 16:46:19:270,-5,-16,21,-4,-5,-11,-2,-5
81979316,01-01 16:46:19:316,-3,-5,-38,4,23,10,1,-2
81979376,01-01 16:46:19:376,-6,-3,-35,5,-8,16,73,29
81979413,01-01 16:46:19:413,4,-10,-18,5,11,3,-14,0
81979473,01-01 16:46:19:473,3,30,-51,-16,-16,-15,-14,-11
81979518,01-01 16:46:19:518,-1,10,53,11,-2,-1,-1,-6
81979578,01-01 16:46:19:578,-3,-3,-18,-6,-3,-1,-4,0
81979623,01-01 16:46:19:623,-4,-7,69,9,-4,-6,-7,-7
81979676,01-01 16:46:19:676,-3,-1,-9,15,9,5,-1,1
81979722,01-01 16:46:19:722,-22,-11,-11,19,3,-3,-3,-3
81979773,01-01 16:46:19:773,0,-10,-34,-13,1,10,1,-2
81979835,01-01 16:46:19:835,0,13,-107,-26,-11,-13,-6,1
81979878,01-01 16:46:19:878,-14,-26,-2,-3,2,3,9,-1
81979924,01-01 16:46:19:924,-4,-92,-14,-30,-6,-12,-12,1
81979983,01-01 16:46:19:983,7,9,-15,1,-1,-8,-10,16
81980036,01-01 16:46:20:36,-16,-6,4,1,1,1,-12,-28
81980080,01-01 16:46:20:80,-2,17,5,-3,0,-1,-9,-6
81980140,01-01 16:46:20:140,0,16,7,-3,3,-2,1,-12
81980178,01-01 16:46:20:178,-14,-1,2,-8,1,-6,-8,-53
81980238,01-01 16:46:20:238,-9,-13,-5,18,11,7,9,12
81980276,01-01 16:46:20:276,3,14,23,0,-1,3,2,8
81980336,01-01 16:46:20:336,3,-42,-67,-4,8,7,3,11
81980395,01-01 16:46:20:395,-1,-13,-47,-5,-3,-7,-3,1
81980441,01-01 16:46:20:441,-22,-37,-20,-3,-1,12,6,5
81980479,01-01 16:46:20:479,24,-33,-15,0,3,-2,-4,-5
81980539,01-01 16:46:20:539,-5,23,-9,-13,-9,-7,-8,6
81980599,01-01 16:46:20:599,-6,-1,2,-27,-44,-9,0,-3
81980636,01-01 16:46:20:636,6,-10,-13,-18,-2,0,-2,2
81980696,01-01 16:46:20:696,-3,-23,-92,-13,-2,0,0,-2
81980719,01-01 16:46:20:719,-1,-9,2,20,-9,0,0,-1
81980801,01-01 16:46:20:801,5,9,-77,-10,-6,1,-3,-1
81980840,01-01 16:46:20:840,2,0,7,20,21,15,3,0
81980900,01-01 16:46:20:900,7,4,39,15,-8,-2,-1,1
81980960,01-01 16:46:20:960,1,8,-10,-20,-6,-13,-10,2
81981006,01-01 16:46:21:6,3,-4,-21,19,-2,7,2,0
81981063,01-01 16:46:21:63,7,-10,32,14,7,1,9,10
81981114,01-01 16:46:21:114,14,0,-9,-5,0,-8,0,2
81981144,01-01 16:46:21:144,4,12,12,-10,0,-6,2,8
81981204,01-01 16:46:21:204,6,-5,-11,8,0,0,-3,11
81981265,01-01 16:46:21:265,-10,-21,-2,8,0,-1,-10,-8
81981318,01-01 16:46:21:318,-18,-21,-20,8,1,-4,-9,-3
81981365,01-01 16:46:21:365,14,-15,-1,-3,-2,-5,0,10
81981423,01-01 16:46:21:423,2,12,-7,7,1,-2,1,0
81981462,01-01 16:46:21:462,18,34,-18,6,-2,-1,3,11
81981522,01-01 16:46:21:522,-59,4,-55,-25,-7,-3,0,-7
81981566,01-01 16:46:21:566,1,-4,56,-1,3,3,-1,-14
81981626,01-01 16:46:21:626,16,-11,-6,3,-3,-4,1,2
81981677,01-01 16:46:21:677,15,7,-17,7,6,7,7,-8
81981725,01-01 16:46:21:725,21,12,34,-1,-10,-13,-14,14
81981783,01-01 16:46:21:783,-5,48,51,6,-1,-2,-3,2
81981822,01-01 16:46:21:822,4,-1,30,5,-9,-2,1,0
81981882,01-01 16:46:21:882,-8,3,-4,-3,3,-3,2,0
81981926,01-01 16:46:21:926,-13,-6,68,4,-13,-12,-5,-10
81981986,01-01 16:46:21:986,1,-30,11,3,-4,0,-5,-5
81982037,01-01 16:46:22:37,6,23,12,6,9,5,2,-2
81982085,01-01 16:46:22:85,4,6,39,-7,-9,-2,3,-2
81982143,01-01 16:46:22:143,-9,-2,-80,-19,17,-3,2,2
81982187,01-01 16:46:22:187,-4,-6,-42,-7,-8,2,2,0
81982240,01-01 16:46:22:240,-2,-5,-15,-4,-20,-12,-6,-2
81982292,01-01 16:46:22:292,8,29,16,19,15,12,4,3
81982346,01-01 16:46:22:346,4,7,-25,-6,-14,-8,-6,0
81982385,01-01 16:46:22:385,-3,-6,-23,-5,2,-4,-4,-2
81982445,01-01 16:46:22:445,-4,-8,-81,-12,-9,-1,-2,-3
81982488,01-01 16:46:22:488,-3,-6,-41,-21,-8,-1,-1,-8
81982548,01-01 16:46:22:548,-8,0,31,-8,-10,-6,5,-4
81982599,01-01 16:46:22:599,4,7,-37,10,3,2,1,2
81982647,01-01 16:46:22:647,-11,-20,42,27,-7,-12,-17,-4
81982706,01-01 16:46:22:706,5,18,1,-6,1,7,-8,-3
81982745,01-01 16:46:22:745,-13,28,27,-6,-2,6,8,1
81982805,01-01 16:46:22:805,4,35,36,11,3,9,13,17
81982848,01-01 16:46:22:848,-1,-38,-78,-6,-4,-4,0,-5
81982908,01-01 16:46:22:908,27,-9,35,10,-5,-15,-11,-7
81982959,01-01 16:46:22:959,3,6,-7,-8,-8,-9,-13,0
81983008,01-01 16:46:23:8,7,13,82,-3,22,-8,-5,-1
81983050,01-01 16:46:23:50,-6,27,9,7,3,-9,-15,5
81983110,01-01 16:46:23:110,-8,31,3,6,-3,-7,-8,2
81983162,01-01 16:46:23:162,-2,-21,-18,-6,-21,-3,0,-10
81983210,01-01 16:46:23:210,12,13,-22,-3,2,-4,-34,0
81983268,01-01 16:46:23:268,2,-46,-50,-16,-3,-4,16,1
81983307,01-01 16:46:23:307,-8,-42,7,-1,-1,0,6,0
81983366,01-01 16:46:23:366,6,2,58,-3,-7,-4,-1,2
81983410,01-01 16:46:23:410,3,34,7,-14,0,-7,-5,-3
81983463,01-01 16:46:23:463,1,-5,17,19,4,2,0,-2
81983508,01-01 16:46:23:508,-9,-15,-41,-7,-14,-4,-2,-1
81983568,01-01 16:46:23:568,2,18,11,6,20,9,1,2
81983606,01-01 16:46:23:606,5,7,-89,-10,-10,-3,-2,-1
81983666,01-01 16:46:23:666,-1,1,-8,-14,-3,-3,-1,0
81983726,01-01 16:46:23:726,-18,-14,-42,-16,-17,2,2,0
81983763,01-01 16:46:23:763,-2,-3,6,27,9,14,7,-1
81983822,01-01 16:46:23:822,-9,-3,-76,-8,0,-8,-12,-14
81983868,01-01 16:46:23:868,1,-15,54,-24,-12,-15,-7,0
81983928,01-01 16:46:23:928,5,7,-21,-6,-4,-20,-17,2
81983966,01-01 16:46:23:966,1,-2,24,-1,4,11,3,2
81984026,01-01 16:46:24:26,6,-1,-31,-10,-5,-7,-5,1
81984069,01-01 16:46:24:69,12,45,27,4,-2,5,-2,1
81984130,01-01 16:46:24:130,16,-37,-4,-16,-4,-6,-3,-5
81984168,01-01 16:46:24:168,0,10,3,2,1,9,10,4
81984228,01-01 16:46:24:228,-3,-4,16,3,-3,0,-2,-1
81984266,01-01 16:46:24:266,-18,-5,-3,-6,-3,0,4,1
81984326,01-01 16:46:24:326,3,-12,-4,8,7,6,-2,0
81984385,01-01 16:46:24:385,-4,-46,-61,-6,-8,-6,-4,-7
81984438,01-01 16:46:24:438,-7,-2,-9,-2,-11,-4,-4,-1
81984468,01-01 16:46:24:468,4,-118,9,0,3,1,-3,-2
81984528,01-01 16:46:24:528,10,2,18,-2,-6,-3,0,2
81984588,01-01 16:46:24:588,8,-12,-43,1,14,6,-4,0
81984626,01-01 16:46:24:626,-8,-12,-73,-23,-5,-6,-5,-6
81984686,01-01 16:46:24:686,5,-16,-19,-7,-5,-4,-2,-1
81984746,01-01 16:46:24:746,-7,-10,-12,-8,8,0,-4,-2
81984792,01-01 16:46:24:792,7,16,-30,0,-9,-2,-3,3
81984828,01-01 16:46:24:828,2,-7,31,-10,6,-4,0,-1
81984888,01-01 16:46:24:888,-1,-6,-79,-16,-10,1,-4,-3
81984948,01-01 16:46:24:948,5,-1,9,-6,-3,-5,-13,2
81984993,01-01 16:46:24:993,0,-6,15,-5,9,-8,-1,0
81985052,01-01 16:46:25:52,-3,-1,-5,-6,-8,3,3,-3
81985091,01-01 16:46:25:91,9,1,-6,16,20,16,6,4
81985151,01-01 16:46:25:151,-5,-15,-3,2,-8,-8,-3,-1
81985196,01-01 16:46:25:196,4,10,14,11,4,2,-4,0
81985248,01-01 16:46:25:248,-6,-14,-63,-13,-10,-3,-5,-2
81985307,01-01 16:46:25:307,-6,-45,42,23,-2,-3,-2,-1
81985355,01-01 16:46:25:355,-4,6,-20,4,1,1,1,-2
81985392,01-01 16:46:25:392,-5,-25,31,7,1,1,1,-2
81985452,01-01 16:46:25:452,1,16,7,4,0,3,2,1
81985512,01-01 16:46:25:512,-6,15,6,0,5,2,3,1
81985556,01-01 16:46:25:556,8,-19,-6,-14,-9,-7,-27,-4
81985617,01-01 16:46:25:617,-2,7,23,-1,-2,-4,-1,-1
81985667,01-01 16:46:25:667,5,23,20,6,6,6,2,3
81985715,01-01 16:46:25:715,-8,-39,1,-17,-10,-6,-3,-3
81985753,01-01 16:46:25:753,-1,-26,-18,4,4,-2,-1,-2
81985812,01-01 16:46:25:812,-1,6,65,5,8,5,1,0
81985872,01-01 16:46:25:872,-3,30,7,14,1,-1,0,0
81985916,01-01 16:46:25:916,-7,-3,13,-1,-2,-1,-2,-3
81985976,01-01 16:46:25:976,-2,-3,-14,2,3,3,0,0
81986027,01-01 16:46:26:27,-3,2,1,-4,-7,-2,-1,-2
81986075,01-01 16:46:26:75,-10,0,14,3,5,3,0,-2
81986117,01-01 16:46:26:117,2,11,-84,-1,-5,-5,-1,0
81986177,01-01 16:46:26:177,-2,15,21,6,7,5,-1,-1
81986230,01-01 16:46:26:230,2,23,23,-1,4,0,-1,1
81986277,01-01 16:46:26:277,4,0,-29,-2,-7,-1,1,3
81986335,01-01 16:46:26:335,-8,-15,-1,-1,-3,-2,-2,-1
81986382,01-01 16:46:26:382,-1,7,41,4,5,6,3,-1
81986435,01-01 16:46:26:435,-1,-10,5,2,5,7,2,-2
81986478,01-01 16:46:26:478,1,-9,-34,-4,-20,-3,1,1
81986538,01-01 16:46:26:538,-2,14,33,17,17,-1,-1,0
81986589,01-01 16:46:26:589,1,5,-2,12,7,4,1,0
81986637,01-01 16:46:26:637,-11,-12,-7,-11,-22,2,-1,-1
81986675,01-01 16:46:26:675,1,-3,-3,-7,9,-1,-2,1
81986742,01-01 16:46:26:742,-3,-2,1,-15,2,-6,-1,-2
81986795,01-01 16:46:26:795,5,12,-8,-5,12,10,5,3
81986838,01-01 16:46:26:838,6,1,19,5,-3,-4,-11,0
81986889,01-01 16:46:26:889,3,6,20,2,11,6,1,0
81986937,01-01 16:46:26:937,-5,-11,-68,-8,0,0,1,0
81986997,01-01 16:46:26:997,4,5,13,3,11,3,0,0
81987039,01-01 16:46:27:39,2,-14,66,-3,2,-4,-1,-1
81987099,01-01 16:46:27:99,0,-15,-70,2,1,-1,-1,-3
81987153,01-01 16:46:27:153,0,-9,-28,-13,-5,1,0,1
81987200,01-01 16:46:27:200,-2,-16,-14,-12,0,2,0,-3
81987237,01-01 16:46:27:237,4,1,-9,-20,-4,-1,-2,0
81987297,01-01 16:46:27:297,4,-48,28,0,-1,-4,-1,-1
81987341,01-01 16:46:27:341,-4,-11,7,9,-1,0,1,0
81987392,01-01 16:46:27:392,3,-15,-25,-5,1,-1,-2,1
81987452,01-01 16:46:27:452,3,-14,-66,-11,4,0,3,0
81987500,01-01 16:46:27:500,-1,-42,-34,12,3,-2,-3,-1
81987558,01-01 16:46:27:558,4,43,-7,-7,2,0,0,3
81987596,01-01 16:46:27:596,-15,23,-23,-13,-1,-2,0,-2
81987656,01-01 16:46:27:656,-6,-16,47,6,1,0,1,-1
81987701,01-01 16:46:27:701,5,74,51,0,-1,2,-2,-3
81987761,01-01 16:46:27:761,-3,27,-6,0,3,0,1,0
81987798,01-01 16:46:27:798,-6,-3,-75,-9,-3,-1,0,0
81987858,01-01 16:46:27:858,-12,23,-49,-17,-4,-3,-3,-3
81987917,01-01 16:46:27:917,-11,1,4,-1,-7,-3,0,-2
81987956,01-01 16:46:27:956,5,37,13,-3,-1,0,-1,2
81988015,01-01 16:46:28:15,-7,-25,-12,-8,-2,-4,-3,-3
81988061,01-01 16:46:28:61,-3,15,71,5,-4,0,-1,-3
81988120,01-01 16:46:28:120,6,34,56,6,12,0,0,-1
81988158,01-01 16:46:28:158,2,2,49,-8,-11,-2,-4,1
81988218,01-01 16:46:28:218,4,22,34,19,17,4,3,2
81988256,01-01 16:46:28:256,-3,-51,-14,7,3,5,2,-2
81988324,01-01 16:46:28:324,4,16,18,3,7,1,-3,-1
81988375,01-01 16:46:28:375,3,-35,17,-7,-6,3,4,1
81988421,01-01 16:46:28:421,-6,-17,-30,1,-3,-2,1,0
81988458,01-01 16:46:28:458,-5,-59,64,-10,-11,-4,0,-3
81988526,01-01 16:46:28:526,2,20,0,-2,-7,-3,-1,0
81988562,01-01 16:46:28:562,-1,-10,0,-1,-16,-2,-2,-3
81988623,01-01 16:46:28:623,-8,-57,10,-11,-14,-10,-4,-5
81988682,01-01 16:46:28:682,-6,9,-8,1,0,-2,-1,-1
81988721,01-01 16:46:28:721,5,4,22,8,-10,-11,0,0
81988781,01-01 16:46:28:781,-15,-2,-10,7,4,8,1,0
81988818,01-01 16:46:28:818,1,34,38,5,-16,-5,-3,-2
81988878,01-01 16:46:28:878,-3,0,-69,-7,7,9,0,-3
81988938,01-01 16:46:28:938,1,-3,-8,-6,13,0,-8,-4
81988984,01-01 16:46:28:984,-9,4,-20,0,11,3,1,-2
81989021,01-01 16:46:29:21,4,-5,24,-7,-3,-3,0,-2
81989081,01-01 16:46:29:81,-3,-39,46,1,-2,-1,1,1
81989141,01-01 16:46:29:141,-1,24,-71,-17,1,1,-1,1
81989178,01-01 16:46:29:178,-3,14,2,-4,-3,1,1,1
81989238,01-01 16:46:29:238,-5,-46,23,-1,29,3,2,1
81989284,01-01 16:46:29:284,2,8,5,3,-1,-3,1,0
81989342,01-01 16:46:29:342,1,13,-26,11,8,2,-1,-1
81989381,01-01 16:46:29:381,-6,-17,-55,-13,-2,-4,0,-2
81989440,01-01 16:46:29:440,1,-5,5,-11,10,0,-1,-2
81989500,01-01 16:46:29:500,-2,-21,-4,-4,0,3,-1,-1
81989545,01-01 16:46:29:545,-1,6,-23,-3,8,1,2,1
81989597,01-01 16:46:29:597,-1,-2,4,-13,-8,-3,-3,0
81989644,01-01 16:46:29:644,8,33,-6,3,-5,-8,0,0
81989704,01-01 16:46:29:704,-2,-3,13,-4,1,5,1,-1
81989748,01-01 16:46:29:748,-1,2,3,-1,0,2,-1,1
81989799,01-01 16:46:29:799,-1,-1,1,5,5,-1,-1,-1
81989846,01-01 16:46:29:846,1,-13,-5,-10,-1,0,2,1
81989907,01-01 16:46:29:907,-3,-2,-10,9,7,-2,-1,0
81989945,01-01 16:46:29:945,-2,-3,-61,-11,3,2,3,0
81990006,01-01 16:46:30:6,1,9,56,-6,4,3,1,0
81990063,01-01 16:46:30:63,-5,3,23,4,-1,0,1,0
81990108,01-01 16:46:30:108,-2,-4,-12,-6,-3,-2,-2,-3
81990159,01-01 16:46:30:159,0,3,2,-2,1,0,-1,-3
81990207,01-01 16:46:30:207,8,-5,-3,8,2,-1,1,1
81990266,01-01 16:46:30:266,-3,-1,5,-5,2,0,-2,0
81990305,01-01 16:46:30:305,6,1,-2,-3,3,0,-1,-1
81990365,01-01 16:46:30:365,-1,-1,-4,-3,-1,1,0,-1
81990408,01-01 16:46:30:408,1,-2,-2,-6,-3,-1,-2,-1
81990468,01-01 16:46:30:468,-2,0,-2,-2,0,-1,-1,0
81990519,01-01 16:46:30:519,1,-2,1,1,-3,-2,-1,-2
81990567,01-01 16:46:30:567,1,0,0,-1,0,0,0,-1
81990626,01-01 16:46:30:626,-1,-1,0,1,0,0,1,0
81990669,01-01 16:46:30:669,-3,-2,1,1,-1,0,0,-2
81990723,01-01 16:46:30:723,3,0,2,1,0,-1,0,2
81990768,01-01 16:46:30:768,8,5,5,19,7,5,4,4
81990830,01-01 16:46:30:830,-6,-7,-1,-6,-4,-4,-3,-4
81990867,01-01 16:46:30:867,1,-1,-3,0,-1,-1,-1,-1
81990927,01-01 16:46:30:927,-9,-2,-2,-1,-1,0,-1,-2
81990986,01-01 16:46:30:986,-1,-2,1,4,2,-1,1,-2
81991031,01-01 16:46:31:31,-8,-2,-2,-1,-1,-1,0,-2
81991082,01-01 16:46:31:82,6,-1,-1,1,1,2,0,0
81991130,01-01 16:46:31:130,-1,0,0,-2,1,0,-1,1
81991190,01-01 16:46:31:190,-10,-5,-2,-2,-1,0,-1,-1
81991227,01-01 16:46:31:227,-1,-1,1,-1,-1,0,-2,-2
81991287,01-01 16:46:31:287,7,1,2,10,2,-1,1,3
81991345,01-01 16:46:31:345,0,2,0,1,1,0,-1,2
81991391,01-01 16:46:31:391,1,2,-1,0,-1,-1,-2,-2
81991442,01-01 16:46:31:442,-9,-1,-1,-2,-1,0,-1,0
81991490,01-01 16:46:31:490,0,-1,1,0,0,0,-1,1
81991548,01-01 16:46:31:548,-4,-4,0,-2,0,0,-1,1
81991592,01-01 16:46:31:592,-5,-2,-2,0,0,0,-2,-1
81991645,01-01 16:46:31:645,-1,-1,0,1,-1,-2,0,-1
81991691,01-01 16:46:31:691,0,-1,0,1,0,-1,-1,-1
81991750,01-01 16:46:31:750,-4,-1,0,0,0,0,0,0
81991790,01-01 16:46:31:790,2,-3,-3,0,0,-1,-1,-1
81991850,01-01 16:46:31:850,1,2,1,0,0,-1,1,0
81991908,01-01 16:46:31:908,-4,2,2,5,0,-1,0,-2
81991953,01-01 16:46:31:953,4,-1,0,-5,-1,-1,-1,0
81992004,01-01 16:46:32:4,-4,1,-2,0,0,-2,-1,0
81992050,01-01 16:46:32:50,-4,-1,1,2,1,1,-1,-2
81992110,01-01 16:46:32:110,-5,-1,3,-1,-1,-1,-2,-3
81992148,01-01 16:46:32:148,-4,0,-1,0,0,0,0,0
81992208,01-01 16:46:32:208,-2,0,-2,0,-1,-1,0,-1
81992251,01-01 16:46:32:251,2,-2,-1,0,0,0,-1,0
81992312,01-01 16:46:32:312,0,-1,0,0,-1,-1,-1,-1
81992365,01-01 16:46:32:365,-6,0,1,-1,0,-1,0,-2
81992412,01-01 16:46:32:412,-9,-2,-4,-1,0,0,-1,-2
81992448,01-01 16:46:32:448,4,-1,-7,-14,-3,0,-1,1
81992508,01-01 16:46:32:508,0,-2,-1,-1,0,0,0,0
81992568,01-01 16:46:32:568,-5,1,1,-1,1,1,2,-2
81992611,01-01 16:46:32:611,-5,-2,-1,-1,-2,0,-3,-1
81992671,01-01 16:46:32:671,4,2,0,0,-2,-1,0,-1
81992710,01-01 16:46:32:710,-1,1,-1,0,-1,-2,-2,0
81992770,01-01 16:46:32:770,-1,-1,-1,0,1,-1,0,-2
81992808,01-01 16:46:32:808,-2,2,0,1,1,-1,0,0
81992868,01-01 16:46:32:868,4,0,0,-2,-1,0,0,0
81992927,01-01 16:46:32:927,-3,1,0,-1,-1,0,0,0
81992973,01-01 16:46:32:973,5,-1,0,-1,0,1,-1,1
81993010,01-01 16:46:33:10,0,5,1,-1,0,0,-1,2
81993070,01-01 16:46:33:70,10,-1,-2,-2,-2,-1,-1,1
81993130,01-01 16:46:33:130,4,0,-1,-5,-3,-3,-2,-1
81993168,01-01 16:46:33:168,2,2,-2,-7,-4,-2,-1,-2
81993226,01-01 16:46:33:226,-2,1,0,-2,1,1,2,0
81993274,01-01 16:46:33:274,1,0,-2,2,0,0,-1,-1
81993333,01-01 16:46:33:333,-8,-3,-1,1,1,0,0,-1
81993370,01-01 16:46:33:370,-9,-2,-1,-1,0,-1,0,-1
81993430,01-01 16:46:33:430,-3,-1,-2,-2,0,1,-3,-1
81993475,01-01 16:46:33:475,-6,-1,-1,1,-2,-2,0,-1
81993535,01-01 16:46:33:535,1,0,-1,0,0,-1,0,1
81993587,01-01 16:46:33:587,-3,1,-2,-2,1,2,1,1
81993633,01-01 16:46:33:633,-19,-6,-2,-3,1,4,1,1
81993670,01-01 16:46:33:670,1,1,0,3,2,0,0,0
81993730,01-01 16:46:33:730,-1,-1,0,-1,1,0,-1,-2
81993789,01-01 16:46:33:789,-6,-1,0,4,2,-1,1,-2
81993836,01-01 16:46:33:836,0,-1,-4,-3,-2,-1,0,-1
81993874,01-01 16:46:33:874,-4,2,1,3,0,0,2,-2
81993934,01-01 16:46:33:934,-6,-1,1,3,8,3,0,-1
81993994,01-01 16:46:33:994,13,4,-3,13,25,17,3,-1
81994030,01-01 16:46:34:30,-3,-4,-8,-15,-5,-8,-1,0
81994090,01-01 16:46:34:90,2,0,-3,-11,3,3,1,0
81994136,01-01 16:46:34:136,-15,-5,-1,10,9,1,2,0
81994197,01-01 16:46:34:197,-12,-5,8,5,7,1,-1,-1
81994239,01-01 16:46:34:239,-5,-3,-2,-3,-9,2,1,-1
81994295,01-01 16:46:34:295,-6,1,6,-7,-1,0,0,-1
81994352,01-01 16:46:34:352,-5,-4,-6,-16,-82,-11,-12,0
81994398,01-01 16:46:34:398,8,-1,-6,-28,-21,41,-73,-11
81994458,01-01 16:46:34:458,-4,2,3,-21,-36,-1,2,-9
81994497,01-01 16:46:34:497,0,2,2,19,30,-8,-19,3
81994557,01-01 16:46:34:557,1,3,3,12,5,-1,-5,0
81994599,01-01 16:46:34:599,-5,1,-1,0,4,-4,-3,-1
81994659,01-01 16:46:34:659,-1,-35,0,2,0,-3,-4,-1
81994700,01-01 16:46:34:700,7,7,1,2,2,0,-3,0
81994759,01-01 16:46:34:759,-1,12,8,8,-1,0,-1,-1
81994797,01-01 16:46:34:797,10,2,-3,5,-5,-2,-2,1
81994857,01-01 16:46:34:857,-19,0,4,10,40,6,-54,3
81994900,01-01 16:46:34:900,3,-4,-1,-11,16,-7,2,-2
81994961,01-01 16:46:34:961,5,-1,12,-3,-25,-6,10,3
81995011,01-01 16:46:35:11,0,-2,15,9,6,2,-4,-1
81995059,01-01 16:46:35:59,-4,-4,-2,17,-9,-3,-1,-2
81995118,01-01 16:46:35:118,6,5,4,12,1,0,-3,-1
81995157,01-01 16:46:35:157,2,5,0,-29,0,0,0,2
81995217,01-01 16:46:35:217,8,0,-3,-4,-19,-16,9,-6
81995260,01-01 16:46:35:260,-9,5,-3,8,-71,-7,-12,4
81995320,01-01 16:46:35:320,4,-3,4,10,46,-6,-12,-2
81995371,01-01 16:46:35:371,0,1,2,9,-15,-23,-25,-2
81995420,01-01 16:46:35:420,-4,1,-1,0,-5,-1,-1,2
81995464,01-01 16:46:35:464,9,-2,-4,14,7,2,0,0
81995522,01-01 16:46:35:522,-7,6,0,-2,0,1,13,1
81995562,01-01 16:46:35:562,6,-1,2,-5,-1,-2,-2,1
81995622,01-01 16:46:35:622,-4,-3,4,1,-5,-4,-3,-7
81995659,01-01 16:46:35:659,-5,-1,-3,5,-3,-5,-4,-5
81995720,01-01 16:46:35:720,-16,-2,3,7,33,19,0,1
81995763,01-01 16:46:35:763,17,8,7,35,62,45,40,11
81995823,01-01 16:46:35:823,3,-1,0,1,-5,-7,-7,-4
81995874,01-01 16:46:35:874,-3,0,-54,1,-16,-3,-1,-2
81995922,01-01 16:46:35:922,-2,6,11,-2,-5,-3,2,2
81995982,01-01 16:46:35:982,-6,-8,-9,-35,-22,-11,-4,-2
81996020,01-01 16:46:36:20,-22,-5,1,7,-4,-8,6,-4
81996080,01-01 16:46:36:80,1,4,7,28,37,21,31,3
81996138,01-01 16:46:36:138,-2,-1,8,4,35,12,-48,1
81996183,01-01 16:46:36:183,1,5,2,2,1,11,30,7
81996234,01-01 16:46:36:234,-2,-3,0,5,-16,-4,10,6
81996282,01-01 16:46:36:282,-9,-5,0,-2,8,2,1,-2
81996340,01-01 16:46:36:340,-8,-4,-1,-1,-5,-3,4,0
81996384,01-01 16:46:36:384,-13,-1,2,-2,-1,-1,3,-1
81996437,01-01 16:46:36:437,8,15,-1,-1,-2,-2,-1,-1
81996483,01-01 16:46:36:483,9,4,-2,0,7,0,0,1
81996543,01-01 16:46:36:543,-5,-4,-9,-13,-8,-4,-3,-1
81996580,01-01 16:46:36:580,18,1,5,5,-14,-9,-3,0
81996640,01-01 16:46:36:640,10,1,-2,1,10,-9,-18,-2
81996684,01-01 16:46:36:684,-7,-4,1,14,36,13,-4,-3
81996744,01-01 16:46:36:744,-3,-5,-1,10,-7,-7,-9,-1
81996797,01-01 16:46:36:797,-5,2,9,-13,-5,1,5,-1
81996850,01-01 16:46:36:850,13,8,-6,-25,-4,1,6,1
81996880,01-01 16:46:36:880,-4,4,0,1,-5,-2,-21,2
81996940,01-01 16:46:36:940,-8,-2,-5,-9,-3,6,86,2
81997000,01-01 16:46:37:0,3,-4,-4,-1,-8,-22,-26,-8
81997039,01-01 16:46:37:39,-1,-2,-1,-3,-10,-21,-20,-8
81997097,01-01 16:46:37:97,1,-3,-5,-24,-6,0,-2,-2
81997143,01-01 16:46:37:143,7,0,-4,5,19,6,-7,0
81997203,01-01 16:46:37:203,2,17,-1,6,2,-2,1,-1
81997240,01-01 16:46:37:240,-1,21,1,4,1,-2,-8,-2
81997300,01-01 16:46:37:300,-15,-3,2,5,-1,2,4,0
81997345,01-01 16:46:37:345,-17,1,-3,3,4,1,-1,-2
81997405,01-01 16:46:37:405,0,-8,-1,-15,-15,-7,1,-4
81997443,01-01 16:46:37:443,15,3,0,11,8,12,-1,0
81997503,01-01 16:46:37:503,5,2,4,4,-19,-10,32,-6
81997547,01-01 16:46:37:547,0,-3,-4,-13,-3,-2,-11,-2
81997600,01-01 16:46:37:600,-7,2,2,-8,-9,-7,-3,0
81997660,01-01 16:46:37:660,3,-4,2,50,7,-2,-3,-2
81997705,01-01 16:46:37:705,4,-4,-1,0,-11,-5,-6,-1
81997743,01-01 16:46:37:743,3,2,1,-6,-2,-1,-2,-3
81997803,01-01 16:46:37:803,0,-3,-1,-12,-9,-1,27,-5
81997863,01-01 16:46:37:863,-2,6,4,11,56,17,7,8
81997900,01-01 16:46:37:900,5,-15,0,11,74,40,-80,-3
81997963,01-01 16:46:37:963,15,-3,-3,-9,-41,-5,25,1
81998020,01-01 16:46:38:20,6,0,-1,-3,-6,-1,15,-1
81998066,01-01 16:46:38:66,-9,1,0,0,-11,-3,7,1
81998125,01-01 16:46:38:125,0,6,0,-3,-1,3,0,0
81998163,01-01 16:46:38:163,6,4,0,-1,0,1,0,3
81998223,01-01 16:46:38:223,-7,-6,-9,-4,4,1,1,0
81998267,01-01 16:46:38:267,14,9,3,9,4,1,-1,-1
81998327,01-01 16:46:38:327,7,-1,2,-2,-9,1,-3,-1
81998379,01-01 16:46:38:379,-18,-6,-1,-7,-8,4,-20,-3
81998426,01-01 16:46:38:426,1,0,0,11,13,2,1,-1
81998486,01-01 16:46:38:486,-2,2,-2,-6,5,6,0,0
81998523,01-01 16:46:38:523,3,2,12,6,2,-5,-3,0
81998583,01-01 16:46:38:583,-5,-11,-7,6,13,2,-1,-3
81998629,01-01 16:46:38:629,-6,-1,-11,-15,-1,-1,0,0
81998689,01-01 16:46:38:689,4,-2,-2,6,-4,-5,-3,0
81998727,01-01 16:46:38:727,-15,-3,0,-1,-6,-2,-3,-2
81998794,01-01 16:46:38:794,-6,-2,-8,-11,18,1,-2,1
81998830,01-01 16:46:38:830,-15,-1,0,1,-1,0,0,-1
81998890,01-01 16:46:38:890,2,1,-3,7,-4,-1,-1,0
81998941,01-01 16:46:38:941,-8,-4,10,-2,-23,-10,-3,-4
81998989,01-01 16:46:38:989,5,-2,-5,-11,-3,3,4,4
81999048,01-01 16:46:39:48,-3,-6,-31,-3,16,20,3,0
81999087,01-01 16:46:39:87,-13,-8,-23,-15,-15,-8,-4,-6
81999147,01-01 16:46:39:147,-8,-6,26,-4,-24,-7,-5,-2
81999190,01-01 16:46:39:190,-4,-2,9,-13,-46,-20,-6,-3
81999250,01-01 16:46:39:250,-1,0,-11,-7,-27,-3,-3,-2
81999301,01-01 16:46:39:301,-1,-1,-10,-5,-31,-13,-1,-2
81999350,01-01 16:46:39:350,0,6,71,15,-11,-4,1,0
81999391,01-01 16:46:39:391,3,-3,-17,-16,15,7,4,1
81999453,01-01 16:46:39:453,-6,0,-18,-11,-21,-1,-5,0
81999504,01-01 16:46:39:504,-1,-6,-17,-19,-10,-2,-7,-2
81999556,01-01 16:46:39:556,-3,-9,-16,-22,-2,0,1,0
81999589,01-01 16:46:39:589,4,-6,-8,-13,-1,-2,-2,-2
81999651,01-01 16:46:39:651,-10,1,-9,-2,-4,-4,0,0
81999709,01-01 16:46:39:709,-1,-16,-4,-3,2,2,0,-2
81999754,01-01 16:46:39:754,11,-21,-1,-2,-7,-5,-4,1
81999813,01-01 16:46:39:813,6,-97,-5,-2,4,-23,-105,63
81999864,01-01 16:46:39:864,-117,67,-4,-14,-46,2,46,-102
81999912,01-01 16:46:39:912,-42,49,-27,99,101,-91,27,-34
81999972,01-01 16:46:39:972,-7,38,29,19,-5,-26,67,21
82000010,01-01 16:46:40:10,-16,-41,8,-12,-18,-42,5,1
82000069,01-01 16:46:40:69,8,-8,4,-1,-9,-1,-12,-10
82000128,01-01 16:46:40:128,-15,-31,-11,10,10,2,1,2
82000159,01-01 16:46:40:159,15,-8,-4,-1,-3,-1,2,-4
82000229,01-01 16:46:40:229,2,0,6,4,1,-1,-1,2
82000272,01-01 16:46:40:272,-10,-1,-8,8,-2,1,0,1
82000332,01-01 16:46:40:332,4,1,-2,-13,-3,-2,0,3
82000374,01-01 16:46:40:374,-1,-1,-5,-1,0,-2,1,1
82000434,01-01 16:46:40:434,0,2,0,1,-2,0,0,-1
82000474,01-01 16:46:40:474,-13,-3,5,13,6,6,1,-1
82000534,01-01 16:46:40:534,12,4,-3,-23,0,-1,3,0
82000572,01-01 16:46:40:572,3,1,-4,-5,0,2,-1,-2
82000632,01-01 16:46:40:632,-3,0,-5,-9,-4,-5,-2,0
82000675,01-01 16:46:40:675,-1,1,1,0,0,1,-1,0
82000735,01-01 16:46:40:735,-16,5,-17,-10,0,2,1,0
82000786,01-01 16:46:40:786,-5,13,3,-3,0,1,0,2
82000835,01-01 16:46:40:835,26,21,11,13,6,3,3,4
82000893,01-01 16:46:40:893,18,27,-1,-1,-1,0,-3,2
82000936,01-01 16:46:40:936,-39,17,9,5,4,3,1,0
82000990,01-01 16:46:40:990,-6,-52,-12,-6,-4,-3,16,-30
82001035,01-01 16:46:41:35,1,52,-32,-11,-2,-9,-58,-109
82001094,01-01 16:46:41:94,3,-58,-7,15,-4,0,17,9
82001133,01-01 16:46:41:133,-24,-117,-11,14,63,-20,-62,6
82001193,01-01 16:46:41:193,45,18,-7,-1,25,4,-15,5
82001232,01-01 16:46:41:232,-49,16,-1,-13,3,17,21,2
82001290,01-01 16:46:41:290,-14,83,12,9,13,13,5,1
82001337,01-01 16:46:41:337,10,2,-18,-17,-5,0,0,-4
82001395,01-01 16:46:41:395,-9,6,-12,-2,-3,1,-3,-3
82001433,01-01 16:46:41:433,-4,1,-9,-4,-1,0,2,0
82001494,01-01 16:46:41:494,-2,-5,-4,6,6,4,-2,-4
82001553,01-01 16:46:41:553,-3,-1,4,21,-1,-3,0,-2
82001590,01-01 16:46:41:590,4,-1,2,3,7,3,3,0
82001650,01-01 16:46:41:650,-2,-2,2,5,-5,-2,-2,-1
82001695,01-01 16:46:41:695,-4,-6,-4,5,-3,0,0,-1
82001755,01-01 16:46:41:755,1,0,0,6,-4,-2,-1,0
82001793,01-01 16:46:41:793,-2,0,-3,11,3,1,0,1
82001853,01-01 16:46:41:853,2,-20,-2,-8,1,2,1,0
82001896,01-01 16:46:41:896,-7,-8,4,4,-2,0,0,-1
82001959,01-01 16:46:41:959,-3,9,-4,-8,-6,-2,-1,1
82002009,01-01 16:46:42:9,25,0,-2,-6,-4,0,1,1
82002055,01-01 16:46:42:55,-28,-12,-3,1,5,2,3,-3
82002100,01-01 16:46:42:100,13,-5,-1,1,-4,1,-3,2
82002153,01-01 16:46:42:153,24,43,-1,-1,-5,-4,-1,6
82002213,01-01 16:46:42:213,9,-73,-5,-9,-7,-2,-36,-86
82002258,01-01 16:46:42:258,-13,54,10,-2,0,2,-6,20
82002318,01-01 16:46:42:318,1,32,-34,-31,-4,1,13,-5
82002355,01-01 16:46:42:355,-11,-18,-5,10,3,6,7,19
82002415,01-01 16:46:42:415,1,20,0,-2,-5,6,18,7
82002453,01-01 16:46:42:453,2,-8,-15,-8,-3,-1,-1,-8
82002513,01-01 16:46:42:513,-15,-21,-5,0,2,3,4,-5
82002573,01-01 16:46:42:573,4,-3,0,1,-2,2,1,0
82002595,01-01 16:46:42:595,5,7,2,4,2,-3,-2,-2
82002655,01-01 16:46:42:655,-1,-17,-21,-32,-9,-10,-3,-4
82002715,01-01 16:46:42:715,-7,4,6,23,3,-6,-4,-2
82002775,01-01 16:46:42:775,-1,2,4,22,-1,6,6,5
82002819,01-01 16:46:42:819,-2,1,-3,-16,3,2,4,2
82002880,01-01 16:46:42:880,-13,-5,2,14,0,-4,-3,-3
82002931,01-01 16:46:42:931,-5,1,4,6,4,2,1,-2
82002978,01-01 16:46:42:978,5,-5,-4,9,0,0,0,0
82003015,01-01 16:46:43:15,-35,-20,-7,-1,-2,-3,-2,-4
82003075,01-01 16:46:43:75,9,2,7,2,3,-2,-1,1
82003120,01-01 16:46:43:120,-21,37,1,-11,-10,-4,2,-4
82003182,01-01 16:46:43:182,-85,-118,13,7,-2,-43,0,-7
82003219,01-01 16:46:43:219,37,-35,-2,1,-7,32,-2,-7
82003279,01-01 16:46:43:279,3,6,8,9,6,0,-4,3
82003339,01-01 16:46:43:339,-29,35,-24,-9,-7,-5,-8,1
82003389,01-01 16:46:43:389,27,-20,1,12,-7,-2,3,-3
82003434,01-01 16:46:43:434,-25,-54,-9,-19,-32,-9,-9,7
82003482,01-01 16:46:43:482,1,-57,13,9,-1,-5,2,15
82003542,01-01 16:46:43:542,-14,-7,-11,-12,6,2,-2,1
82003587,01-01 16:46:43:587,2,19,-6,1,-1,3,3,3
82003639,01-01 16:46:43:639,-4,6,1,2,-9,-2,-1,0
82003698,01-01 16:46:43:698,4,-1,4,-6,-2,-2,-3,1
82003743,01-01 16:46:43:743,0,3,17,13,6,0,1,1
82003794,01-01 16:46:43:794,-8,-20,-76,-31,-7,-5,-4,-4
82003842,01-01 16:46:43:842,5,4,66,3,-3,-1,-1,2
82003902,01-01 16:46:43:902,-11,-3,13,-20,-10,-2,0,-3
82003944,01-01 16:46:43:944,8,14,-14,16,8,3,-1,1
82004004,01-01 16:46:44:4,6,7,61,25,9,5,1,4
82004043,01-01 16:46:44:43,4,1,0,21,4,-3,1,2
82004104,01-01 16:46:44:104,9,21,-32,9,-1,0,3,2
82004142,01-01 16:46:44:142,-11,-15,103,-9,-2,0,-2,-4
82004208,01-01 16:46:44:208,-8,2,-29,23,3,0,2,1
82004260,01-01 16:46:44:260,-6,0,58,29,-4,-1,-9,-3
82004305,01-01 16:46:44:305,-11,-9,50,-42,-16,-11,-16,-5
82004356,01-01 16:46:44:356,-10,-3,-13,-7,3,-11,-4,5
82004404,01-01 16:46:44:404,0,-9,110,46,10,6,-3,-1
82004463,01-01 16:46:44:463,-8,-53,-68,-46,-3,16,4,-3
82004502,01-01 16:46:44:502,-4,-19,-29,8,3,2,-1,-4
82004562,01-01 16:46:44:562,0,46,-62,-14,-10,-8,0,5
82004596,01-01 16:46:44:596,-12,-13,3,2,-2,-1,-1,-1
82004665,01-01 16:46:44:665,-37,51,9,5,-3,-2,-3,-3
82004716,01-01 16:46:44:716,1,-86,-20,-6,-6,-12,-39,-35
82004764,01-01 16:46:44:764,25,-7,-13,-4,4,27,39,82
82004823,01-01 16:46:44:823,-11,1,-15,4,4,1,118,28
82004866,01-01 16:46:44:866,22,18,13,-4,-1,2,-8,33
82004920,01-01 16:46:44:920,16,50,49,1,-9,-5,-30,-29
82004971,01-01 16:46:44:971,20,-16,-36,-8,2,-2,-4,16
82005025,01-01 16:46:45:25,18,-12,2,-5,2,2,3,5
82005064,01-01 16:46:45:64,-13,12,-10,-4,0,-4,-2,-2
82005124,01-01 16:46:45:124,-7,-3,-27,-6,5,6,0,-1
82005182,01-01 16:46:45:182,-1,5,-49,-11,-16,-11,-5,-4
82005228,01-01 16:46:45:228,-2,-9,10,-9,4,-1,-1,-2
82005279,01-01 16:46:45:279,4,11,68,16,3,3,3,3
82005327,01-01 16:46:45:327,-3,0,71,4,-9,-7,-7,-5
82005364,01-01 16:46:45:364,1,18,15,-8,-3,-1,-1,1
82005423,01-01 16:46:45:423,-3,-11,-4,-6,-6,-1,-1,-1
82005484,01-01 16:46:45:484,7,22,14,12,6,4,4,2
82005534,01-01 16:46:45:534,-12,-51,99,-20,-10,-10,-11,-11
82005586,01-01 16:46:45:586,-3,7,2,-8,3,6,1,-2
82005625,01-01 16:46:45:625,-4,1,-50,-27,-6,-3,-1,0
82005685,01-01 16:46:45:685,-1,-5,-66,-30,-7,-5,-4,-5
82005744,01-01 16:46:45:744,8,3,50,14,0,-12,-2,3
82005790,01-01 16:46:45:790,4,0,84,18,3,11,9,2
82005843,01-01 16:46:45:843,10,6,-54,-26,9,10,3,1
82005886,01-01 16:46:45:886,-8,-10,37,14,-4,2,-1,-2
82005946,01-01 16:46:45:946,-25,0,-15,3,6,1,3,-3
82005985,01-01 16:46:45:985,3,40,-31,-32,-6,-7,-3,-1
82006045,01-01 16:46:46:45,-5,-3,-11,43,0,-3,-3,3
82006083,01-01 16:46:46:83,-3,-45,-27,-10,-10,-5,2,-4
82006144,01-01 16:46:46:144,102,3,31,0,-2,0,10,76
82006202,01-01 16:46:46:202,8,23,-7,-3,-5,-13,-44,-47
82006248,01-01 16:46:46:248,-3,7,57,65,7,-2,17,-29
82006285,01-01 16:46:46:285,-1,-32,-2,3,-1,-64,1,32
82006345,01-01 16:46:46:345,9,2,10,-8,-1,4,-12,17
82006405,01-01 16:46:46:405,2,-15,-52,17,9,4,-2,-15
82006443,01-01 16:46:46:443,-8,2,10,-6,-8,9,-4,-6
82006503,01-01 16:46:46:503,-2,7,-6,-5,-5,-3,1,-6
82006556,01-01 16:46:46:556,-4,41,-11,-2,6,3,0,4
82006608,01-01 16:46:46:608,3,-38,-49,9,6,3,-1,-4
82006645,01-01 16:46:46:645,0,-6,-48,-14,-24,-11,-6,-5
82006705,01-01 16:46:46:705,-3,-3,-51,4,12,0,2,-1
82006749,01-01 16:46:46:749,2,13,8,7,4,-2,-2,0
82006809,01-01 16:46:46:809,9,-3,43,-5,-1,-1,-3,1
82006863,01-01 16:46:46:863,-12,-25,-68,6,-5,-6,-4,-2
82006908,01-01 16:46:46:908,-11,-2,29,1,-7,-5,3,1
82006945,01-01 16:46:46:945,9,6,-29,4,1,-1,-6,-4
82007005,01-01 16:46:47:5,9,-3,-1,10,4,4,0,1
82007065,01-01 16:46:47:65,-3,-26,27,4,-1,-6,0,0
82007118,01-01 16:46:47:118,17,6,-118,-16,10,3,5,3
82007148,01-01 16:46:47:148,5,-4,-71,-48,-8,6,-1,1
82007207,01-01 16:46:47:207,-7,-3,-30,4,-1,0,4,2
82007268,01-01 16:46:47:268,2,-2,27,-4,-9,-7,-3,-11
82007305,01-01 16:46:47:305,-9,-62,103,11,0,1,-2,-6
82007365,01-01 16:46:47:365,17,9,-29,-14,1,4,-61,17
82007424,01-01 16:46:47:424,-31,-22,46,8,4,7,47,-60
82007471,01-01 16:46:47:471,-5,109,20,20,-2,-1,35,-64
82007508,01-01 16:46:47:508,61,-87,24,-28,-27,-7,10,23
82007574,01-01 16:46:47:574,-68,124,16,-21,-6,27,-33,1
82007629,01-01 16:46:47:629,-14,-56,2,2,-1,-4,3,-10
82007674,01-01 16:46:47:674,-2,1,79,18,7,-1,13,16
82007724,01-01 16:46:47:724,-11,-30,33,7,0,4,1,-5
82007779,01-01 16:46:47:779,-1,-10,-54,-17,0,0,1,-5
82007832,01-01 16:46:47:832,6,17,81,13,-3,-4,-2,-1
82007875,01-01 16:46:47:875,2,8,127,25,14,5,2,2
82007927,01-01 16:46:47:927,-2,-5,-4,-4,-11,-2,-1,-3
82007952,01-01 16:46:47:952,-2,-16,-28,-7,-11,-6,1,2
82008034,01-01 16:46:48:34,-5,0,99,3,0,-1,0,-1
82008072,01-01 16:46:48:72,-22,-28,38,-6,-2,-1,-4,-6
82008132,01-01 16:46:48:132,3,-1,22,3,5,1,2,-1
82008191,01-01 16:46:48:191,-16,-14,24,6,0,2,0,-3
82008235,01-01 16:46:48:235,7,13,-86,-19,1,-1,-2,2
82008286,01-01 16:46:48:286,0,12,-32,-20,-2,-4,0,0
82008346,01-01 16:46:48:346,-8,-7,52,5,-3,-4,-1,-2
82008394,01-01 16:46:48:394,7,1,23,2,-3,0,-4,-5
82008432,01-01 16:46:48:432,-15,6,24,4,4,0,4,0
82008497,01-01 16:46:48:497,-26,-9,7,-1,0,-1,1,-13
82008550,01-01 16:46:48:550,-8,-47,26,14,7,9,7,-36
82008595,01-01 16:46:48:595,-49,-109,-17,3,2,1,2,-25
82008646,01-01 16:46:48:646,15,62,-23,3,3,1,1,22
82008694,01-01 16:46:48:694,7,21,-30,-17,-10,-2,-4,1
82008754,01-01 16:46:48:754,-24,-7,35,-24,-7,0,2,6
82008804,01-01 16:46:48:804,1,-34,-41,-4,-9,-4,-3,-5
82008849,01-01 16:46:48:849,-5,-1,10,13,25,1,0,-4
82008897,01-01 16:46:48:897,0,7,23,16,12,3,0,3
82008956,01-01 16:46:48:956,9,-9,-47,-29,-2,13,4,2
82008994,01-01 16:46:48:994,-17,-17,-4,-42,-10,15,1,-1
82009052,01-01 16:46:49:52,-15,-29,-4,-2,-9,-4,-7,-6
82009097,01-01 16:46:49:97,1,-26,-41,-26,-12,-2,0,-1
82009158,01-01 16:46:49:158,15,37,11,28,2,1,-2,0
82009209,01-01 16:46:49:209,9,3,-34,-54,-13,-4,0,2
82009256,01-01 16:46:49:256,-5,10,65,-40,0,0,-2,0
82009294,01-01 16:46:49:294,-6,-28,-13,-11,-5,1,6,3
82009354,01-01 16:46:49:354,-6,-33,-62,-8,9,3,3,0
82009414,01-01 16:46:49:414,3,-28,-72,-7,5,3,-3,3
82009457,01-01 16:46:49:457,-2,-9,31,24,-9,-6,3,3
82009518,01-01 16:46:49:518,5,9,-5,-22,-7,-6,-6,-1
82009569,01-01 16:46:49:569,9,70,33,9,5,9,9,16
82009617,01-01 16:46:49:617,-3,-40,9,-5,-2,5,-1,-2
82009675,01-01 16:46:49:675,21,-36,-38,2,-8,-1,1,-1
82009719,01-01 16:46:49:719,-1,-13,26,-13,-4,-2,0,-2
82009774,01-01 16:46:49:774,15,-8,62,7,0,0,3,3
82009819,01-01 16:46:49:819,-10,-12,-2,18,-5,-7,-5,-3
82009877,01-01 16:46:49:877,-3,-2,-67,18,5,5,1,-3
82009915,01-01 16:46:49:915,-15,-26,127,38,9,8,7,-1
82009975,01-01 16:46:49:975,-4,24,43,-11,0,-2,-1,1
82010012,01-01 16:46:50:12,11,-21,-39,23,4,0,0,3
82010072,01-01 16:46:50:72,-6,24,17,12,-8,0,1,1
82010132,01-01 16:46:50:132,-3,8,-83,-15,-6,-13,-3,2
82010177,01-01 16:46:50:177,8,-4,-74,-27,-7,-5,-1,-1
82010215,01-01 16:46:50:215,7,-58,6,1,2,5,3,1
82010275,01-01 16:46:50:275,-9,13,50,-15,12,8,0,-3
82010335,01-01 16:46:50:335,15,-16,10,15,5,17,15,10
82010372,01-01 16:46:50:372,2,4,-20,6,-2,5,0,-1
82010431,01-01 16:46:50:431,-2,8,61,23,6,4,0,1
