timestamp,formatted_time,emg1,emg2,emg3,emg4,emg5,emg6,emg7,emg8
1289343,12-31 18:21:29:343,-1,-4,-1,-5,-5,-2,-7,-2
1289403,12-31 18:21:29:403,-1,0,1,2,41,2,0,1
1289456,12-31 18:21:29:456,1,-2,-3,-11,-20,-34,2,0
1289508,12-31 18:21:29:508,-1,-1,-1,-2,-9,3,-1,-2
1289555,12-31 18:21:29:555,2,6,-2,4,31,7,-2,1
1289593,12-31 18:21:29:593,3,2,1,1,-36,-6,-1,-1
1289653,12-31 18:21:29:653,-1,0,1,5,8,-3,-1,0
1289710,12-31 18:21:29:710,2,1,-1,-10,-56,-5,2,-2
1289757,12-31 18:21:29:757,2,1,-1,-1,32,-1,0,0
1289817,12-31 18:21:29:817,-1,2,2,12,10,3,1,-3
1289868,12-31 18:21:29:868,1,0,5,5,2,7,-1,0
1289916,12-31 18:21:29:916,1,-2,0,0,-47,3,5,1
1289958,12-31 18:21:29:958,-1,2,-4,-5,20,-3,-1,0
1290013,12-31 18:21:30:13,1,-4,0,7,41,-7,8,2
1290073,12-31 18:21:30:73,4,5,-1,5,48,-2,-2,-1
1290118,12-31 18:21:30:118,2,0,4,5,28,-7,-4,1
1290156,12-31 18:21:30:156,-1,-2,3,5,27,-12,0,0
1290216,12-31 18:21:30:216,-2,-4,-1,8,51,1,-7,-2
1290276,12-31 18:21:30:276,0,0,2,34,9,13,-3,0
1290318,12-31 18:21:30:318,1,-2,-4,-12,2,11,-5,-1
1290379,12-31 18:21:30:379,-1,-1,-2,-15,-58,-4,-10,-3
1290423,12-31 18:21:30:423,2,1,1,-4,3,-4,-3,-1
1290462,12-31 18:21:30:462,-1,-1,-2,-10,-13,5,0,0
1290523,12-31 18:21:30:523,-4,-2,3,-9,-32,-15,-1,0
1290561,12-31 18:21:30:561,-1,3,-1,-14,33,13,1,0
1290621,12-31 18:21:30:621,2,3,-8,-38,-35,1,-1,-1
1290681,12-31 18:21:30:681,1,-1,-4,12,49,8,3,2
1290724,12-31 18:21:30:724,-4,-3,-9,-1,23,4,-2,0
1290784,12-31 18:21:30:784,0,2,3,-14,-14,-1,-1,-2
1290835,12-31 18:21:30:835,-3,9,-12,-6,16,-6,-4,-1
1290883,12-31 18:21:30:883,1,-9,8,13,-6,15,5,2
1290921,12-31 18:21:30:921,2,2,23,10,11,17,0,2
1290981,12-31 18:21:30:981,-5,-17,-1,-7,25,-2,4,3
1291039,12-31 18:21:31:39,-2,-10,-3,-2,19,54,8,0
1291084,12-31 18:21:31:84,-3,-1,-3,-10,-8,-24,-5,-6
1291135,12-31 18:21:31:135,2,4,1,25,-6,-28,4,8
1291183,12-31 18:21:31:183,-4,-1,-8,4,1,-18,-6,-10
1291243,12-31 18:21:31:243,-3,-4,-9,-26,5,37,1,0
1291281,12-31 18:21:31:281,-1,3,9,4,3,6,-6,0
1291345,12-31 18:21:31:345,-2,0,4,-11,-40,-11,-3,6
1291384,12-31 18:21:31:384,-7,-2,1,-22,-72,-12,-29,5
1291446,12-31 18:21:31:446,-6,4,4,1,21,-26,3,16
1291483,12-31 18:21:31:483,1,0,2,7,24,20,-7,18
1291543,12-31 18:21:31:543,9,-10,-3,-4,0,24,9,9
1291602,12-31 18:21:31:602,-1,-21,4,17,-1,-4,1,23
1291647,12-31 18:21:31:647,16,1,-4,-4,7,23,9,44
1291698,12-31 18:21:31:698,20,-2,-2,-3,-2,-16,-7,-34
1291746,12-31 18:21:31:746,3,1,0,-1,-2,20,24,-39
1291804,12-31 18:21:31:804,-4,-5,-2,12,-7,-12,-2,-5
1291843,12-31 18:21:31:843,-13,-1,6,13,11,-6,-1,-20
1291903,12-31 18:21:31:903,38,-3,1,10,35,15,3,-2
1291948,12-31 18:21:31:948,-75,-23,-10,-9,-38,-17,-24,-38
1292007,12-31 18:21:32:7,127,20,-4,-16,-41,4,27,32
1292044,12-31 18:21:32:44,-62,1,-2,-5,-6,-3,0,43
1292104,12-31 18:21:32:104,-122,-5,1,6,11,-9,-39,-68
1292164,12-31 18:21:32:164,-22,-4,0,2,15,8,-5,-13
1292202,12-31 18:21:32:202,-58,-9,-1,23,6,11,-5,10
1292262,12-31 18:21:32:262,13,-8,-1,9,-10,-6,7,17
1292307,12-31 18:21:32:307,-4,0,0,-1,-9,3,7,-16
1292367,12-31 18:21:32:367,-33,1,-2,-3,2,-5,-10,-5
1292404,12-31 18:21:32:404,11,-1,1,-7,-7,-10,3,4
1292464,12-31 18:21:32:464,-1,1,-2,2,-15,1,-2,-2
1292502,12-31 18:21:32:502,6,-1,-2,-1,1,1,-3,3
1292562,12-31 18:21:32:562,-4,2,-4,-2,-2,0,-1,0
1292622,12-31 18:21:32:622,2,-2,-1,-4,-5,0,0,-2
1292667,12-31 18:21:32:667,-2,-2,-1,-4,-5,-3,1,-1
1292704,12-31 18:21:32:704,2,-3,2,3,-1,0,-7,0
1292764,12-31 18:21:32:764,-1,-3,-1,-6,0,-4,-2,-3
1292824,12-31 18:21:32:824,2,3,1,0,5,2,0,-2
1292862,12-31 18:21:32:862,0,0,0,1,8,1,1,1
1292922,12-31 18:21:32:922,1,-1,19,-1,-4,-2,0,-1
1292980,12-31 18:21:32:980,-4,3,-21,0,-1,-3,-3,-2
1293027,12-31 18:21:33:27,4,6,-3,-17,-2,1,-2,1
1293064,12-31 18:21:33:64,-1,-1,-14,18,3,1,-1,-1
1293124,12-31 18:21:33:124,-6,-13,-8,-6,-6,-7,-8,-3
1293184,12-31 18:21:33:184,-3,4,10,-17,-6,-6,-7,-1
1293229,12-31 18:21:33:229,2,8,2,3,1,3,2,1
1293289,12-31 18:21:33:289,-1,12,22,21,2,2,3,1
1293328,12-31 18:21:33:328,-1,0,-7,-4,-3,-1,-1,2
1293389,12-31 18:21:33:389,0,-4,0,-1,0,-1,0,1
1293424,12-31 18:21:33:424,-2,-1,-2,-1,-1,-2,0,-1
1293484,12-31 18:21:33:484,-1,-1,-1,0,0,-1,1,-1
1293544,12-31 18:21:33:544,2,3,4,1,0,1,-1,0
1293591,12-31 18:21:33:591,0,-2,-2,-1,-1,-2,-2,1
1293628,12-31 18:21:33:628,-1,-2,-1,-1,1,-2,0,0
1293688,12-31 18:21:33:688,-1,-1,-1,-1,2,-1,5,-2
1293748,12-31 18:21:33:748,-1,-1,0,0,-1,-2,-4,-2
1293792,12-31 18:21:33:792,-2,0,-1,0,1,-2,1,-2
1293843,12-31 18:21:33:843,-2,-2,-1,0,1,2,-1,0
1293891,12-31 18:21:33:891,1,-1,-2,-1,-1,-1,-1,2
1293951,12-31 18:21:33:951,0,-5,-6,6,2,1,3,-1
1293988,12-31 18:21:33:988,-1,-4,-3,-4,-1,-4,-2,-1
1294053,12-31 18:21:34:53,-4,-2,21,9,-2,-4,-2,-2
1294092,12-31 18:21:34:92,-2,-3,2,11,4,1,-2,0
1294152,12-31 18:21:34:152,0,0,-4,7,4,-1,0,0
1294196,12-31 18:21:34:196,1,-3,-2,1,0,-2,-10,-1
1294251,12-31 18:21:34:251,-2,-9,-9,-8,5,1,-8,-1
1294293,12-31 18:21:34:293,-3,4,-4,-5,-1,-2,-3,-1
1294351,12-31 18:21:34:351,3,8,19,5,8,2,-2,4
1294407,12-31 18:21:34:407,-15,2,2,14,-15,-11,5,-7
1294453,12-31 18:21:34:453,8,0,-12,-8,-1,0,-23,9
1294512,12-31 18:21:34:512,-1,5,-4,-1,4,3,-6,-5
1294551,12-31 18:21:34:551,10,7,2,2,3,0,17,3
1294611,12-31 18:21:34:611,4,8,3,-1,4,-3,-13,-2
1294654,12-31 18:21:34:654,8,-4,1,1,1,0,4,5
1294714,12-31 18:21:34:714,-6,-4,-1,-3,-6,-3,5,0
1294731,12-31 18:21:34:731,2,4,0,0,4,2,0,-2
1294813,12-31 18:21:34:813,0,1,2,2,1,1,2,-1
1294851,12-31 18:21:34:851,-4,0,1,0,-2,0,-1,-2
1294911,12-31 18:21:34:911,-1,0,-1,0,5,-3,-3,-1
1294969,12-31 18:21:34:969,-3,-1,-2,0,0,-1,-2,-2
1295014,12-31 18:21:35:14,-1,-6,-1,1,-3,0,-1,-1
1295074,12-31 18:21:35:74,0,0,1,0,3,1,1,-1
1295125,12-31 18:21:35:125,-2,-3,-2,1,0,-1,0,0
1295173,12-31 18:21:35:173,-2,-1,-1,0,-2,-2,-2,-1
1295216,12-31 18:21:35:216,1,-1,0,-1,-1,0,0,0
1295277,12-31 18:21:35:277,-1,-1,-1,-4,-3,-1,0,-1
1295328,12-31 18:21:35:328,0,1,2,-1,-3,-1,0,-1
1295376,12-31 18:21:35:376,-3,-2,-5,0,-4,0,-2,-1
1295421,12-31 18:21:35:421,0,-9,8,1,-2,-2,0,0
1295473,12-31 18:21:35:473,2,3,7,6,7,1,1,1
1295533,12-31 18:21:35:533,0,2,-23,1,-7,-4,6,2
1295583,12-31 18:21:35:583,-4,17,17,19,0,-2,0,3
1295628,12-31 18:21:35:628,8,5,32,-1,-12,6,8,5
1295676,12-31 18:21:35:676,-2,10,12,-43,-1,3,8,-2
1295736,12-31 18:21:35:736,2,11,1,13,9,-1,2,-1
1295773,12-31 18:21:35:773,8,13,9,8,5,2,8,3
1295833,12-31 18:21:35:833,-6,-16,-18,4,-2,-2,0,-2
1295892,12-31 18:21:35:892,0,0,2,-5,2,-1,2,1
1295937,12-31 18:21:35:937,-1,-1,-1,-2,0,0,-2,-2
1295988,12-31 18:21:35:988,0,-1,1,-7,-4,-4,-33,-2
1296036,12-31 18:21:36:36,-3,1,-1,-1,2,0,5,-2
1296096,12-31 18:21:36:96,-3,1,-1,-1,-2,-3,1,-3
1296138,12-31 18:21:36:138,-1,-3,-1,0,1,3,-2,-2
1296191,12-31 18:21:36:191,-1,0,3,1,0,-3,-2,1
1296243,12-31 18:21:36:243,-1,-2,-2,-2,-2,2,-4,1
1296298,12-31 18:21:36:298,0,1,-1,0,-4,1,-1,-2
1296336,12-31 18:21:36:336,1,-2,0,1,0,0,1,-2
1296396,12-31 18:21:36:396,-1,0,1,1,1,1,1,0
1296439,12-31 18:21:36:439,1,1,-2,0,-4,-2,-1,1
1296499,12-31 18:21:36:499,0,-2,1,-3,0,-1,-1,-1
1296550,12-31 18:21:36:550,0,-1,-1,1,-1,1,2,-2
1296597,12-31 18:21:36:597,-1,0,-1,0,0,-1,0,0
1296634,12-31 18:21:36:634,-1,-2,-2,0,1,1,0,-1
1296694,12-31 18:21:36:694,0,0,-1,0,-1,-1,-1,-1
1296754,12-31 18:21:36:754,-2,4,-21,3,1,-1,1,-1
1296798,12-31 18:21:36:798,-2,-6,1,-13,-10,-4,-1,-1
1296858,12-31 18:21:36:858,4,-4,15,7,0,-3,-4,-1
1296910,12-31 18:21:36:910,1,29,-6,-3,-4,-2,-3,0
1296957,12-31 18:21:36:957,-7,-9,-4,-6,-3,-5,-4,-2
1296994,12-31 18:21:36:994,10,8,-3,-2,-6,-1,1,0
1297054,12-31 18:21:37:54,-6,-1,-2,0,-2,-1,0,-1
1297098,12-31 18:21:37:98,0,-1,0,-2,-1,-1,-1,1
1297160,12-31 18:21:37:160,-2,-1,-2,-1,1,0,-1,-1
1297197,12-31 18:21:37:197,0,-1,-1,-1,-2,-1,0,-1
1297257,12-31 18:21:37:257,0,-1,0,-1,-2,-1,0,0
1297317,12-31 18:21:37:317,-1,-1,-1,-1,0,-1,1,0
1297354,12-31 18:21:37:354,-5,0,-2,-1,1,-2,-2,-1
1297415,12-31 18:21:37:415,-6,0,-1,-1,1,1,2,0
1297460,12-31 18:21:37:460,-2,1,0,2,4,1,0,0
1297520,12-31 18:21:37:520,-1,-2,0,-4,0,-1,2,-3
1297557,12-31 18:21:37:557,-3,-1,-4,-17,-2,0,-1,-2
1297617,12-31 18:21:37:617,0,1,-1,0,1,-1,-8,1
1297654,12-31 18:21:37:654,0,0,1,2,-2,1,2,-1
1297714,12-31 18:21:37:714,0,-3,-4,-8,-4,-1,3,-1
1297760,12-31 18:21:37:760,0,0,1,1,0,-1,0,0
1297820,12-31 18:21:37:820,1,2,4,5,2,-1,1,-2
1297857,12-31 18:21:37:857,0,0,0,-2,-4,1,1,1
1297917,12-31 18:21:37:917,-1,-1,-2,-3,-3,-2,-1,-1
1297976,12-31 18:21:37:976,1,0,1,9,4,1,8,-3
1298021,12-31 18:21:38:21,-5,-2,1,3,1,0,-2,-1
1298073,12-31 18:21:38:73,3,-1,8,8,5,4,-4,3
1298121,12-31 18:21:38:121,-6,-2,0,-6,-1,3,4,-2
1298179,12-31 18:21:38:179,-1,-4,-3,1,-4,-1,1,-1
1298224,12-31 18:21:38:224,0,1,-1,-1,-6,-1,-1,-3
1298277,12-31 18:21:38:277,-1,0,0,-1,-2,-1,1,-1
1298323,12-31 18:21:38:323,1,1,-1,0,-3,-1,1,-1
1298383,12-31 18:21:38:383,13,1,0,-1,0,1,1,2
1298421,12-31 18:21:38:421,15,2,-1,1,0,-3,-5,0
1298481,12-31 18:21:38:481,-4,-1,-1,-1,-2,-1,2,1
1298539,12-31 18:21:38:539,-1,-1,-1,0,1,0,-1,-2
1298584,12-31 18:21:38:584,-2,0,0,-1,1,0,-1,-2
1298635,12-31 18:21:38:635,0,-1,0,0,-5,-2,-2,-1
1298691,12-31 18:21:38:691,0,0,-2,0,-1,-1,-1,-1
1298721,12-31 18:21:38:721,-1,0,0,0,0,0,-1,-1
1298781,12-31 18:21:38:781,-1,2,-1,-2,4,-3,-1,1
1298838,12-31 18:21:38:838,0,-1,-1,0,-2,-2,0,0
1298884,12-31 18:21:38:884,0,1,-1,-2,-3,0,0,-2
1298944,12-31 18:21:38:944,-2,-1,-1,-1,-2,-3,-3,0
1298995,12-31 18:21:38:995,-2,0,0,-2,0,-1,-1,-3
1299043,12-31 18:21:39:43,-1,-1,-1,-1,2,0,-1,-1
1299103,12-31 18:21:39:103,3,0,-1,2,7,3,2,0
1299145,12-31 18:21:39:145,0,10,3,-4,-2,-6,-2,0
1299207,12-31 18:21:39:207,0,-2,0,7,0,-1,1,1
1299246,12-31 18:21:39:246,-4,-2,0,-2,-4,-4,-4,-2
1299306,12-31 18:21:39:306,-2,-2,-2,-1,4,0,-3,0
1299343,12-31 18:21:39:343,3,-1,-1,0,0,1,0,-1
1299403,12-31 18:21:39:403,0,2,1,-3,-4,-2,2,0
1299463,12-31 18:21:39:463,1,-1,-1,2,2,2,1,-2
1299507,12-31 18:21:39:507,-10,0,-2,1,1,0,0,-1
1299567,12-31 18:21:39:567,0,-1,1,0,-1,0,-1,1
1299618,12-31 18:21:39:618,1,-1,0,-1,0,-1,0,-2
1299666,12-31 18:21:39:666,-3,1,0,0,1,-1,0,-2
1299703,12-31 18:21:39:703,-18,0,-1,1,-1,0,-1,0
1299768,12-31 18:21:39:768,3,-1,0,0,-2,-2,-3,-2
1299821,12-31 18:21:39:821,-8,-1,0,1,-1,0,2,0
1299867,12-31 18:21:39:867,16,-2,0,-1,-1,0,-1,-2
1299918,12-31 18:21:39:918,5,-2,0,0,-1,-1,-2,0
1299966,12-31 18:21:39:966,2,-1,-2,1,-2,-1,-1,0
1300026,12-31 18:21:40:26,4,0,-1,-1,0,0,1,-1
1300068,12-31 18:21:40:68,-1,0,0,0,0,0,0,1
1300128,12-31 18:21:40:128,1,0,-1,-1,0,-2,-1,-1
1300168,12-31 18:21:40:168,0,0,1,-1,-1,0,-2,-2
1300228,12-31 18:21:40:228,-1,1,0,0,0,-2,-1,-1
1300266,12-31 18:21:40:266,0,0,0,0,1,-1,0,1
1300326,12-31 18:21:40:326,-17,-5,-3,1,1,-2,-1,-2
1300369,12-31 18:21:40:369,0,0,1,2,-3,-4,-1,0
1300429,12-31 18:21:40:429,-11,1,-1,-1,-2,0,-4,-1
1300480,12-31 18:21:40:480,1,4,-2,-1,-4,0,-4,-1
1300528,12-31 18:21:40:528,4,-7,-1,-2,2,2,2,-1
1300587,12-31 18:21:40:587,0,1,0,-2,-1,-2,0,-1
1300630,12-31 18:21:40:630,1,-1,0,-1,2,-2,0,0
1300686,12-31 18:21:40:686,-24,0,0,-1,-2,-3,-2,-2
1300729,12-31 18:21:40:729,0,1,0,1,0,-2,-3,-5
1300789,12-31 18:21:40:789,-12,-4,0,-3,-1,-4,-11,-4
1300828,12-31 18:21:40:828,-4,1,0,0,-1,2,-1,0
1300888,12-31 18:21:40:888,-24,-4,-1,-1,-2,-2,1,-2
1300931,12-31 18:21:40:931,-37,-9,-1,-2,-3,-2,-3,-3
1300990,12-31 18:21:40:990,2,-1,-1,0,-1,-4,-5,0
1301043,12-31 18:21:41:43,-4,-4,-2,0,-2,0,-2,-1
1301089,12-31 18:21:41:89,-5,-2,0,0,-1,-2,-1,0
1301127,12-31 18:21:41:127,3,0,-1,2,-1,-1,-2,0
1301187,12-31 18:21:41:187,1,-1,-1,0,-1,0,1,0
1301231,12-31 18:21:41:231,1,-2,-2,-2,-2,0,-1,-2
1301291,12-31 18:21:41:291,0,-1,-1,-1,2,-2,0,0
1301352,12-31 18:21:41:352,-1,0,1,-1,-3,0,1,1
1301389,12-31 18:21:41:389,0,0,-1,-1,-1,0,-1,0
1301449,12-31 18:21:41:449,1,-1,0,1,-1,0,-3,-1
1301487,12-31 18:21:41:487,-2,-1,1,1,-1,-1,1,-1
1301547,12-31 18:21:41:547,7,-5,-3,-3,1,-1,-3,-2
1301607,12-31 18:21:41:607,16,-3,-2,-5,-4,0,0,1
1301643,12-31 18:21:41:643,-8,-6,-1,-2,-3,-3,-8,-4
1301703,12-31 18:21:41:703,4,-1,1,0,0,-2,-5,-2
1301749,12-31 18:21:41:749,-2,-3,-2,-2,-1,-1,-1,-1
1301809,12-31 18:21:41:809,-14,-4,0,0,-3,5,6,-6
1301846,12-31 18:21:41:846,-32,0,-1,-1,0,0,-2,-18
1301907,12-31 18:21:41:907,12,2,1,0,-2,2,6,6
1301952,12-31 18:21:41:952,-21,-5,-1,-2,2,2,26,0
1302012,12-31 18:21:42:12,2,0,-1,0,-2,-2,3,-2
1302049,12-31 18:21:42:49,8,0,1,0,-2,-1,-7,2
1302109,12-31 18:21:42:109,-1,-5,-2,-2,-1,-1,-5,-1
1302169,12-31 18:21:42:169,8,3,-1,0,0,-2,-3,1
1302207,12-31 18:21:42:207,-3,3,-1,-1,-1,0,0,0
1302267,12-31 18:21:42:267,2,0,-2,-1,-5,-2,-3,-2
1302312,12-31 18:21:42:312,1,1,0,0,3,0,-2,1
1302372,12-31 18:21:42:372,2,-2,0,-2,1,1,0,0
1302409,12-31 18:21:42:409,0,-1,-1,-2,-1,-2,-1,0
1302470,12-31 18:21:42:470,-2,0,0,-3,-1,1,-2,-1
1302515,12-31 18:21:42:515,-4,-1,-1,-1,-1,-2,1,1
1302573,12-31 18:21:42:573,2,0,1,-1,0,-1,-1,0
1302625,12-31 18:21:42:625,-5,0,0,0,-1,-2,-1,-1
1302673,12-31 18:21:42:673,0,-1,-1,-1,3,2,-1,0
1302731,12-31 18:21:42:731,-3,1,0,-1,-2,-1,0,-1
1302775,12-31 18:21:42:775,0,-2,-1,-1,1,-1,1,-1
1302828,12-31 18:21:42:828,0,0,-1,0,0,1,-1,2
1302876,12-31 18:21:42:876,-3,0,-4,-1,1,0,-1,-2
1302936,12-31 18:21:42:936,-2,-2,-4,-2,4,0,6,-1
1302973,12-31 18:21:42:973,-1,-1,-1,1,-3,1,-4,1
1303033,12-31 18:21:43:33,-4,-2,0,0,0,-1,1,-1
1303077,12-31 18:21:43:77,6,3,0,-3,-4,-2,-9,14
1303136,12-31 18:21:43:136,-5,-1,1,0,-1,-12,-2,-4
1303188,12-31 18:21:43:188,-8,0,1,-1,-1,0,-1,16
1303236,12-31 18:21:43:236,-2,-3,1,0,0,2,-2,-2
1303273,12-31 18:21:43:273,-21,-1,-3,0,-3,0,0,-2
1303333,12-31 18:21:43:333,3,0,-1,-2,0,0,-4,0
1303393,12-31 18:21:43:393,3,0,-1,-1,2,0,0,-1
1303436,12-31 18:21:43:436,1,-2,0,-1,1,-1,1,1
1303497,12-31 18:21:43:497,1,0,1,-1,-1,1,-1,1
1303548,12-31 18:21:43:548,-3,0,0,-1,0,0,0,-2
1303601,12-31 18:21:43:601,-1,-2,1,-1,-1,0,0,-4
1303637,12-31 18:21:43:637,-4,-1,-1,-1,0,0,-2,-1
1303699,12-31 18:21:43:699,-4,-1,1,1,0,-2,-5,-3
1303751,12-31 18:21:43:751,-8,-2,-1,-1,1,1,1,0
1303798,12-31 18:21:43:798,-2,-2,-1,-1,-2,0,0,0
1303857,12-31 18:21:43:857,0,0,-1,0,-1,-2,0,0
1303896,12-31 18:21:43:896,0,-1,1,0,0,-1,-3,-1
1303956,12-31 18:21:43:956,-4,-1,0,1,1,-2,5,-8
1303999,12-31 18:21:43:999,10,3,1,1,1,0,0,4
1304059,12-31 18:21:44:59,0,-1,0,1,-1,0,-2,-1
1304110,12-31 18:21:44:110,4,0,0,-2,-1,-2,0,-2
1304158,12-31 18:21:44:158,-6,1,0,0,-1,0,0,-1
1304218,12-31 18:21:44:218,0,0,-1,-2,1,0,1,1
1304255,12-31 18:21:44:255,-2,-3,-3,-2,-1,0,-2,-2
1304315,12-31 18:21:44:315,-1,-1,0,1,-4,-2,-1,-1
1304359,12-31 18:21:44:359,-4,-7,-5,-3,1,-3,-2,-1
1304419,12-31 18:21:44:419,-2,2,2,0,0,1,-1,2
1304470,12-31 18:21:44:470,-4,0,-1,-1,1,0,18,3
1304518,12-31 18:21:44:518,-8,-4,0,0,-2,1,-1,5
1304560,12-31 18:21:44:560,0,-2,-1,-2,-3,-5,-16,-24
1304620,12-31 18:21:44:620,1,-1,-1,0,0,1,3,3
1304673,12-31 18:21:44:673,-3,-1,-1,0,-2,-2,-2,-2
1304719,12-31 18:21:44:719,-2,0,0,-1,2,0,1,1
1304780,12-31 18:21:44:780,-2,0,-2,1,-1,-1,-1,-1
1304818,12-31 18:21:44:818,12,5,0,-2,0,-3,1,0
1304878,12-31 18:21:44:878,0,0,1,-2,-1,0,-2,-1
1304921,12-31 18:21:44:921,-5,-2,0,-1,-2,-1,0,-2
1304973,12-31 18:21:44:973,1,-2,-2,-1,1,-1,-1,-8
1305033,12-31 18:21:45:33,-2,0,0,0,-1,-2,-1,2
1305080,12-31 18:21:45:80,1,0,-2,0,0,-3,-4,-1
1305139,12-31 18:21:45:139,1,0,-1,1,1,3,-3,0
1305178,12-31 18:21:45:178,0,-1,-1,0,1,0,12,2
1305238,12-31 18:21:45:238,0,-2,-1,1,-2,-3,0,0
1305289,12-31 18:21:45:289,-1,1,-1,0,0,-2,-4,-4
1305333,12-31 18:21:45:333,0,-2,0,-1,-1,-2,-1,-3
1305393,12-31 18:21:45:393,3,1,0,0,-1,0,1,2
1305440,12-31 18:21:45:440,0,0,0,-2,-3,-3,-1,5
1305476,12-31 18:21:45:476,-2,0,-1,-1,0,-1,-5,-2
1305537,12-31 18:21:45:537,3,0,-2,0,1,-1,-1,8
1305597,12-31 18:21:45:597,-5,-2,2,0,0,0,-2,13
1305642,12-31 18:21:45:642,-5,1,-7,-1,-1,0,0,-6
1305701,12-31 18:21:45:701,-10,6,0,2,-4,-3,-1,2
1305739,12-31 18:21:45:739,-5,-3,1,2,3,-1,0,-4
1305799,12-31 18:21:45:799,1,-6,-1,-1,-3,0,2,-1
1305836,12-31 18:21:45:836,1,9,-2,-3,2,1,-4,-8
1305896,12-31 18:21:45:896,6,5,-1,-1,-3,-3,-1,-2
1305956,12-31 18:21:45:956,0,-5,-3,0,-1,3,2,0
1306001,12-31 18:21:46:1,-4,0,0,-1,1,-1,-4,-3
1306047,12-31 18:21:46:47,-3,-4,0,-1,1,-1,2,2
1306099,12-31 18:21:46:99,0,-2,-2,-2,-2,0,-2,-1
1306159,12-31 18:21:46:159,0,0,-1,1,0,0,0,1
1306196,12-31 18:21:46:196,-2,-2,0,1,0,-3,4,1
1306265,12-31 18:21:46:265,1,-2,-1,0,1,-1,6,-1
1306315,12-31 18:21:46:315,0,0,1,0,1,0,0,0
1306361,12-31 18:21:46:361,1,1,-1,0,0,-1,-1,-1
1306399,12-31 18:21:46:399,-1,-1,0,0,2,0,1,-1
1306459,12-31 18:21:46:459,0,-1,0,-1,-5,0,-1,2
1306519,12-31 18:21:46:519,1,-1,1,0,0,1,1,-1
1306563,12-31 18:21:46:563,-1,-1,-2,2,-2,0,0,-1
1306615,12-31 18:21:46:615,0,-1,-1,1,0,0,2,-1
1306662,12-31 18:21:46:662,-1,0,0,-1,0,1,1,0
1306722,12-31 18:21:46:722,0,0,-1,0,-1,1,-1,0
1306759,12-31 18:21:46:759,-1,-1,-1,0,-2,-2,0,0
1306819,12-31 18:21:46:819,1,-1,0,-1,-1,-1,0,0
1306865,12-31 18:21:46:865,9,-3,0,-1,-1,0,0,1
1306925,12-31 18:21:46:925,-9,-4,0,-1,2,1,5,-4
1306962,12-31 18:21:46:962,-49,-5,-1,-2,-1,-1,-4,10
1307022,12-31 18:21:47:22,1,-1,-1,0,-2,0,-1,0
1307082,12-31 18:21:47:82,-9,-1,0,-1,0,-1,-6,-1
1307128,12-31 18:21:47:128,-10,-5,-1,-1,0,-1,-13,-3
1307186,12-31 18:21:47:186,1,1,-1,-3,-2,-3,-3,-5
1307238,12-31 18:21:47:238,-2,2,-2,-1,1,-1,-7,0
1307285,12-31 18:21:47:285,4,1,-2,0,1,-1,1,1
1307330,12-31 18:21:47:330,-1,-2,2,-2,0,-2,-3,-1
1307383,12-31 18:21:47:383,0,-2,-1,1,-1,-2,0,-1
1307426,12-31 18:21:47:426,1,1,-1,-1,0,0,1,2
1307486,12-31 18:21:47:486,0,1,0,0,-1,1,3,-1
1307538,12-31 18:21:47:538,-2,-2,-3,-1,-1,2,1,1
1307585,12-31 18:21:47:585,-4,-2,-1,-1,0,1,-1,0
1307645,12-31 18:21:47:645,1,-2,-1,0,0,-1,0,0
1307688,12-31 18:21:47:688,4,0,1,0,-1,-1,-1,1
1307740,12-31 18:21:47:740,-2,-1,0,-1,0,-3,0,0
1307788,12-31 18:21:47:788,-1,0,0,0,1,-1,0,-1
1307848,12-31 18:21:47:848,-1,0,0,-1,0,0,-1,1
1307885,12-31 18:21:47:885,-1,-1,-1,0,0,1,0,-1
1307945,12-31 18:21:47:945,-1,0,1,0,-1,0,-2,0
1307989,12-31 18:21:47:989,2,0,0,-1,-1,-2,0,0
1308049,12-31 18:21:48:49,4,-2,0,1,-2,0,0,0
1308100,12-31 18:21:48:100,7,6,0,1,2,1,0,-1
1308148,12-31 18:21:48:148,2,-1,-2,0,-17,-3,-2,14
1308191,12-31 18:21:48:191,-1,-2,-2,-1,-4,-2,-8,-10
1308245,12-31 18:21:48:245,2,-1,0,-1,3,-1,2,0
1308290,12-31 18:21:48:290,6,-1,-2,-2,-5,-2,1,0
1308355,12-31 18:21:48:355,0,1,-1,0,6,0,1,0
1308409,12-31 18:21:48:409,0,0,0,0,8,0,0,0
1308460,12-31 18:21:48:460,0,-1,0,-1,-21,0,-1,0
1308508,12-31 18:21:48:508,-1,0,1,-1,3,-4,1,0
1308567,12-31 18:21:48:567,-1,2,2,-2,1,1,2,0
1308610,12-31 18:21:48:610,-1,-6,-1,-5,-16,-3,-2,1
1308663,12-31 18:21:48:663,0,-1,-3,0,12,0,-2,-8
1308710,12-31 18:21:48:710,6,8,0,3,1,2,-12,2
1308770,12-31 18:21:48:770,6,-1,-2,-1,-2,-2,-6,-1
1308808,12-31 18:21:48:808,9,4,1,0,-2,-2,-1,1
1308873,12-31 18:21:48:873,-6,-3,-2,-2,-3,1,0,-1
1308911,12-31 18:21:48:911,-19,-4,-2,-2,1,-1,9,0
1308971,12-31 18:21:48:971,-43,-3,-2,-1,-2,-2,7,12
1309023,12-31 18:21:49:23,-27,-2,-2,-2,-1,-1,1,10
1309070,12-31 18:21:49:70,2,1,-1,0,0,1,4,2
1309129,12-31 18:21:49:129,8,-1,-1,-1,1,1,-2,1
1309168,12-31 18:21:49:168,1,0,-1,1,0,-2,-1,0
1309226,12-31 18:21:49:226,2,-1,0,0,0,0,-1,-2
1309271,12-31 18:21:49:271,1,-1,-1,-2,-2,-2,-1,-1
1309331,12-31 18:21:49:331,-1,-1,-1,0,0,-1,0,-2
1309383,12-31 18:21:49:383,3,1,-1,0,-1,-1,-3,1
1309430,12-31 18:21:49:430,0,0,1,0,0,0,-2,-1
1309490,12-31 18:21:49:490,-7,-4,-1,-3,-18,-2,0,1
1309532,12-31 18:21:49:532,1,0,1,-1,-7,-1,-4,-1
1309592,12-31 18:21:49:592,4,4,0,0,3,0,1,0
1309633,12-31 18:21:49:633,2,4,1,1,-3,-1,-4,-1
1309693,12-31 18:21:49:693,-5,1,0,-4,-11,-4,1,-3
1309730,12-31 18:21:49:730,14,7,1,3,2,1,2,5
1309790,12-31 18:21:49:790,-8,-4,-1,-2,-2,-6,-7,-25
1309834,12-31 18:21:49:834,1,-1,0,-3,-1,0,3,5
1309885,12-31 18:21:49:885,1,-1,-1,1,0,0,2,0
1309933,12-31 18:21:49:933,-3,-1,0,0,1,0,0,0
1309991,12-31 18:21:49:991,32,5,-1,-2,-1,0,-2,1
1310051,12-31 18:21:50:51,4,-6,0,-1,-1,0,-1,15
1310089,12-31 18:21:50:89,4,-3,-1,-1,0,2,-4,2
1310148,12-31 18:21:50:148,-1,-2,-1,0,-3,0,-3,-2
1310194,12-31 18:21:50:194,-4,0,0,0,-3,-3,-11,-6
1310254,12-31 18:21:50:254,-1,0,-1,0,1,0,2,-6
1310291,12-31 18:21:50:291,8,-2,-1,-1,-2,-1,-7,-5
1310351,12-31 18:21:50:351,-4,-1,-3,1,-1,-3,5,0
1310395,12-31 18:21:50:395,-2,-2,-1,0,-3,-2,3,-2
1310459,12-31 18:21:50:459,-2,0,0,-1,-1,-1,0,1
1310494,12-31 18:21:50:494,-1,-2,-2,0,-1,0,0,-1
1310540,12-31 18:21:50:540,0,1,1,1,1,-1,-1,0
1310591,12-31 18:21:50:591,3,-3,-1,0,-1,0,0,0
1310651,12-31 18:21:50:651,-3,0,-1,-1,-1,-1,1,0
1310711,12-31 18:21:50:711,-1,1,-1,0,1,0,0,0
1310756,12-31 18:21:50:756,-1,0,-1,-2,-4,-4,-2,1
1310816,12-31 18:21:50:816,-1,2,-3,-1,0,-2,-1,-2
1310867,12-31 18:21:50:867,-5,-2,2,0,0,1,-1,-1
1310915,12-31 18:21:50:915,-1,-3,1,0,-2,4,1,0
1310951,12-31 18:21:50:951,-1,0,-2,-2,0,3,-2,-2
1311011,12-31 18:21:51:11,0,2,-1,-1,0,-1,1,-1
1311056,12-31 18:21:51:56,-2,-2,1,0,-2,0,-2,1
1311116,12-31 18:21:51:116,-7,-2,0,-1,1,-2,0,2
1311177,12-31 18:21:51:177,1,1,1,3,0,-1,-1,-1
1311228,12-31 18:21:51:228,0,2,1,-1,2,0,3,-2
1311274,12-31 18:21:51:274,-4,-1,-2,0,-1,-3,1,-1
1311334,12-31 18:21:51:334,-2,-6,-1,1,0,2,1,-1
1311371,12-31 18:21:51:371,-1,-5,-1,0,-1,0,-2,-1
1311431,12-31 18:21:51:431,2,0,0,0,1,-1,-1,-3
1311477,12-31 18:21:51:477,3,1,-3,1,0,-1,0,-2
1311537,12-31 18:21:51:537,1,-1,-2,1,-3,-1,-1,-3
1311574,12-31 18:21:51:574,-3,-1,0,1,-1,0,-1,1
1311635,12-31 18:21:51:635,1,0,0,-1,-1,-2,-2,0
1311679,12-31 18:21:51:679,-1,-1,-2,-1,0,-2,1,0
1311739,12-31 18:21:51:739,1,-1,-1,-2,-4,-1,-2,-1
1311790,12-31 18:21:51:790,-2,0,-1,-1,1,-1,0,-1
1311838,12-31 18:21:51:838,-1,0,-5,1,0,-1,-1,-1
1311875,12-31 18:21:51:875,-2,-6,-14,-15,-4,-1,0,-1
1311935,12-31 18:21:51:935,3,8,13,-5,-9,1,0,0
1311995,12-31 18:21:51:995,-1,0,8,-1,-6,0,-1,0
1312039,12-31 18:21:52:39,11,21,2,11,23,8,1,7
1312090,12-31 18:21:52:90,-10,-3,5,-1,-20,-7,-8,-9
1312138,12-31 18:21:52:138,-3,-18,-14,8,6,8,6,-1
1312198,12-31 18:21:52:198,0,2,5,-1,-2,-3,0,-2
1312240,12-31 18:21:52:240,-3,-5,-1,-1,-8,-5,-2,0
1312300,12-31 18:21:52:300,-4,-3,-6,-2,-4,-2,5,-6
1312353,12-31 18:21:52:353,35,29,4,16,7,-1,12,5
1312400,12-31 18:21:52:400,-27,-5,8,-17,-4,-8,-23,-14
1312438,12-31 18:21:52:438,6,3,17,7,8,1,6,-17
1312498,12-31 18:21:52:498,-3,-2,1,2,-8,0,5,-5
1312543,12-31 18:21:52:543,0,-1,3,2,2,4,1,-4
1312601,12-31 18:21:52:601,0,-2,0,-3,-3,-15,0,-1
1312653,12-31 18:21:52:653,-3,-7,-3,-2,10,-1,0,1
1312708,12-31 18:21:52:708,3,3,3,4,28,2,2,2
1312760,12-31 18:21:52:760,1,-1,-1,0,11,4,0,1
1312798,12-31 18:21:52:798,-1,-3,0,-2,-10,-5,-2,-4
1312858,12-31 18:21:52:858,-5,1,1,0,5,1,-1,1
1312916,12-31 18:21:52:916,0,0,-3,0,1,-1,0,0
1312961,12-31 18:21:52:961,-2,0,0,-3,0,-3,-1,-1
1313012,12-31 18:21:53:12,1,1,-3,-2,-4,-3,-3,1
1313060,12-31 18:21:53:60,0,-3,-1,-2,1,2,-1,-2
1313120,12-31 18:21:53:120,-1,-1,-1,-3,3,-4,-1,-1
1313163,12-31 18:21:53:163,-1,-2,-2,-2,-3,-1,-4,-3
1313222,12-31 18:21:53:222,1,0,0,-3,-47,-3,1,0
1313261,12-31 18:21:53:261,0,-1,2,-2,4,0,-1,0
1313323,12-31 18:21:53:323,-2,-11,-9,0,7,1,0,-2
1313360,12-31 18:21:53:360,-3,-3,1,0,1,-1,-1,0
1313420,12-31 18:21:53:420,-3,6,-1,-7,1,-3,-3,-1
1313480,12-31 18:21:53:480,0,11,5,-3,-4,1,0,-2
1313524,12-31 18:21:53:524,2,3,3,0,16,-2,-2,-1
1313584,12-31 18:21:53:584,-3,-1,1,-1,0,1,0,0
1313635,12-31 18:21:53:635,-4,-1,0,-1,0,0,0,-1
1313683,12-31 18:21:53:683,0,-1,-1,0,9,-1,0,0
1313741,12-31 18:21:53:741,-1,4,-3,0,-2,-3,1,0
1313780,12-31 18:21:53:780,3,5,-1,-2,-3,-1,0,-1
1313840,12-31 18:21:53:840,-2,-3,-1,0,1,3,-2,-2
1313884,12-31 18:21:53:884,-1,-2,-1,-1,4,-2,0,-1
1313935,12-31 18:21:53:935,-3,-1,-1,1,-2,-1,0,1
1313995,12-31 18:21:53:995,-2,-1,0,0,-3,-1,1,0
1314043,12-31 18:21:54:43,0,-1,0,-1,-1,-1,0,-1
1314085,12-31 18:21:54:85,-2,2,-1,1,-1,-1,0,-1
1314146,12-31 18:21:54:146,0,-1,-1,-2,-2,1,1,2
1314198,12-31 18:21:54:198,-1,-1,0,-2,0,-2,0,-1
1314245,12-31 18:21:54:245,-1,0,-1,-1,1,1,-1,0
1314304,12-31 18:21:54:304,-1,-1,0,-1,-2,-1,0,2
1314343,12-31 18:21:54:343,0,-2,0,1,1,-1,1,-1
1314403,12-31 18:21:54:403,0,-1,0,-1,-2,-1,1,1
1314446,12-31 18:21:54:446,-2,-1,0,0,0,0,-1,1
1314506,12-31 18:21:54:506,0,-1,-2,-1,-6,1,1,0
1314544,12-31 18:21:54:544,0,1,-1,-1,1,-1,0,-1
1314604,12-31 18:21:54:604,0,3,1,2,-1,0,1,1
1314641,12-31 18:21:54:641,-5,-11,3,-5,-17,-3,-2,-3
1314701,12-31 18:21:54:701,0,-1,-8,-1,-8,2,-1,-1
1314745,12-31 18:21:54:745,-9,-1,0,-2,7,-2,-4,-4
1314805,12-31 18:21:54:805,1,2,6,5,5,3,-4,1
1314857,12-31 18:21:54:857,4,1,2,-3,-13,-3,-3,-2
1314904,12-31 18:21:54:904,-3,-5,1,0,1,0,-1,-3
1314941,12-31 18:21:54:941,0,0,-2,0,-3,-1,0,1
1315001,12-31 18:21:55:1,-2,-5,-1,-1,-2,-2,-2,-1
1315061,12-31 18:21:55:61,0,-3,-3,-1,-1,0,-1,1
1315106,12-31 18:21:55:106,0,2,-1,1,-1,0,0,-1
1315165,12-31 18:21:55:165,-2,-1,-3,-1,1,2,-2,-2
1315204,12-31 18:21:55:204,-2,-1,-1,0,0,-1,0,2
1315264,12-31 18:21:55:264,-1,-1,-2,-1,1,-1,0,0
1315301,12-31 18:21:55:301,1,0,1,-2,1,-2,-2,-4
1315361,12-31 18:21:55:361,-1,0,0,-1,-1,-1,1,-2
1315421,12-31 18:21:55:421,-1,-1,-2,-1,0,-4,-1,0
1315467,12-31 18:21:55:467,-1,-1,0,-3,-1,0,-1,1
1315504,12-31 18:21:55:504,-1,-1,0,0,1,0,-1,-1
1315564,12-31 18:21:55:564,-1,0,-1,-2,-3,0,0,-1
1315624,12-31 18:21:55:624,-2,-5,7,-1,-10,-2,-2,0
1315661,12-31 18:21:55:661,-2,-7,-8,-5,-6,-4,0,-1
1315707,12-31 18:21:55:707,1,-7,-4,1,7,1,2,0
1315767,12-31 18:21:55:767,2,4,10,7,9,1,-1,0
1315827,12-31 18:21:55:827,-2,-10,19,5,2,-2,0,-1
1315864,12-31 18:21:55:864,-3,3,15,5,2,0,0,0
1315924,12-31 18:21:55:924,1,0,14,-2,-10,1,-1,0
1315984,12-31 18:21:55:984,-9,-29,-38,-4,-2,-6,-1,-1
1316028,12-31 18:21:56:28,-2,2,12,14,-2,1,1,3
1316067,12-31 18:21:56:67,2,0,4,0,-15,2,-4,-10
1316128,12-31 18:21:56:128,-3,-7,-2,10,35,0,4,-2
1316186,12-31 18:21:56:186,-2,-3,-1,2,-1,-2,-2,-4
1316231,12-31 18:21:56:231,-8,-6,-1,-5,-8,0,-5,-3
1316282,12-31 18:21:56:282,-4,-4,1,4,7,4,5,-4
1316330,12-31 18:21:56:330,1,3,-5,-5,-8,-4,-5,1
1316390,12-31 18:21:56:390,29,20,33,5,-6,4,18,17
1316428,12-31 18:21:56:428,15,4,0,-10,8,5,5,8
1316488,12-31 18:21:56:488,0,-4,-2,-1,-5,-6,-8,-7
1316546,12-31 18:21:56:546,8,8,-3,-9,-11,-2,-2,2
1316591,12-31 18:21:56:591,1,-2,-1,-1,2,5,-2,1
1316642,12-31 18:21:56:642,-2,-1,-3,-4,-3,-2,8,-4
1316690,12-31 18:21:56:690,1,-3,0,-2,-3,-2,-1,1
1316750,12-31 18:21:56:750,5,4,2,0,-4,-4,-1,2
1316792,12-31 18:21:56:792,-2,1,-1,-2,2,1,1,-3
1316848,12-31 18:21:56:848,-1,0,-1,0,-2,0,-2,-1
1316891,12-31 18:21:56:891,-2,0,0,-1,-1,-1,-1,0
1316951,12-31 18:21:56:951,0,1,0,1,0,-1,1,-1
1317002,12-31 18:21:57:2,0,-2,-2,-1,1,-2,0,0
1317050,12-31 18:21:57:50,1,-1,0,0,-2,-1,-1,0
1317108,12-31 18:21:57:108,0,0,1,0,1,-1,0,-1
1317152,12-31 18:21:57:152,0,-2,0,-1,-1,0,-2,-1
1317205,12-31 18:21:57:205,2,-1,4,-3,-1,-1,-1,-1
1317253,12-31 18:21:57:253,-6,-4,7,1,1,1,2,2
1317313,12-31 18:21:57:313,15,-13,3,7,-6,1,1,3
1317351,12-31 18:21:57:351,28,8,3,1,-1,4,1,-3
1317410,12-31 18:21:57:410,-10,-1,1,-3,0,-1,0,4
1317454,12-31 18:21:57:454,0,3,1,-1,-3,-2,0,1
1317514,12-31 18:21:57:514,-3,-2,-2,-1,-2,-1,0,1
1317565,12-31 18:21:57:565,-2,1,-2,0,2,-1,1,0
1317613,12-31 18:21:57:613,0,1,-1,1,0,-1,-1,-1
1317671,12-31 18:21:57:671,1,-1,-1,0,0,-2,1,-1
1317710,12-31 18:21:57:710,1,-2,1,0,0,0,-2,0
1317770,12-31 18:21:57:770,1,5,-1,-1,1,-1,0,-1
1317814,12-31 18:21:57:814,2,2,-1,0,-1,-2,-1,-1
1317874,12-31 18:21:57:874,-2,0,1,-1,-2,0,0,1
1317925,12-31 18:21:57:925,0,0,-2,-1,-1,1,1,0
1317973,12-31 18:21:57:973,2,-1,0,-1,0,0,-1,0
1318015,12-31 18:21:58:15,-1,-1,0,0,0,-1,-1,-1
1318076,12-31 18:21:58:76,0,0,0,-1,-1,-2,1,1
1318115,12-31 18:21:58:115,-1,0,-2,1,-1,0,-2,0
1318175,12-31 18:21:58:175,-1,-1,1,-1,-1,-2,-1,0
1318234,12-31 18:21:58:234,-1,-1,-2,-1,-1,-2,-1,-1
1318273,12-31 18:21:58:273,0,-1,-1,-1,0,-1,-2,-2
1318333,12-31 18:21:58:333,1,-2,-2,-1,0,0,0,-2
1318376,12-31 18:21:58:376,-7,0,6,5,3,1,1,1
1318436,12-31 18:21:58:436,-18,-1,7,-4,-11,-10,-4,-4
1318487,12-31 18:21:58:487,-5,4,1,1,-2,0,-1,-1
1318535,12-31 18:21:58:535,-2,-2,2,1,-3,3,2,1
1318573,12-31 18:21:58:573,-10,-5,-1,-1,1,0,-1,-1
1318633,12-31 18:21:58:633,0,-7,0,-2,-1,-2,-1,-1
1318693,12-31 18:21:58:693,-3,-2,-3,0,3,2,-2,-1
1318736,12-31 18:21:58:736,1,-3,-1,-1,-2,-1,0,0
1318796,12-31 18:21:58:796,-1,0,-1,0,1,0,0,0
1318847,12-31 18:21:58:847,1,-1,-1,-1,-2,-1,0,0
1318895,12-31 18:21:58:895,-4,1,-1,0,-1,0,-1,-1
1318945,12-31 18:21:58:945,0,-1,1,-1,-1,0,-2,0
1318998,12-31 18:21:58:998,-2,0,0,-2,-1,-1,1,0
1319051,12-31 18:21:59:51,1,-2,-1,0,-1,-1,0,0
1319096,12-31 18:21:59:96,-1,1,0,1,-1,-1,2,0
1319134,12-31 18:21:59:134,0,-1,0,-1,0,-1,-1,0
1319194,12-31 18:21:59:194,-1,-2,-2,-1,0,0,-1,-2
1319254,12-31 18:21:59:254,-1,0,-1,0,1,-1,1,0
1319291,12-31 18:21:59:291,-1,1,0,-1,-1,0,1,-2
1319350,12-31 18:21:59:350,0,-1,-1,0,0,1,-1,-1
1319396,12-31 18:21:59:396,0,1,-1,-1,-3,-1,-1,-1
1319456,12-31 18:21:59:456,7,-1,0,-1,-2,0,0,-2
1319493,12-31 18:21:59:493,0,-1,-2,0,-1,-2,-1,-1
1319553,12-31 18:21:59:553,-1,-1,-1,-3,0,-4,-3,1
1319598,12-31 18:21:59:598,0,-2,2,-2,-1,2,-1,-1
1319658,12-31 18:21:59:658,0,-11,-1,1,1,2,2,2
1319710,12-31 18:21:59:710,3,-10,-4,-8,-10,-3,-2,-1
1319756,12-31 18:21:59:756,-1,-7,-5,1,2,9,5,2
1319794,12-31 18:21:59:794,7,2,-4,-2,-7,0,-10,-1
1319853,12-31 18:21:59:853,-1,-1,3,4,7,8,-1,5
1319914,12-31 18:21:59:914,-5,-4,-2,-2,-2,0,-6,1
1319959,12-31 18:21:59:959,-1,2,-1,-3,1,-6,-2,-1
1320018,12-31 18:22:00:18,-2,-1,1,0,-2,-2,0,-1
1320056,12-31 18:22:00:56,1,1,0,2,-2,0,-4,0
1320116,12-31 18:22:00:116,1,0,2,1,-1,-4,1,0
1320153,12-31 18:22:00:153,-1,-2,-2,0,-1,-8,-1,-3
1320213,12-31 18:22:00:213,2,-2,0,-1,1,-3,-1,-1
1320273,12-31 18:22:00:273,1,-1,-1,-1,0,-1,0,0
1320319,12-31 18:22:00:319,-1,-2,-1,0,-1,0,-1,-2
1320356,12-31 18:22:00:356,1,0,-1,0,0,-2,1,0
1320417,12-31 18:22:00:417,-3,1,0,2,0,-2,0,-1
1320477,12-31 18:22:00:477,-2,-1,0,0,0,-1,-1,-1
1320513,12-31 18:22:00:513,1,0,1,0,0,0,0,-1
1320572,12-31 18:22:00:572,-2,0,-3,0,-3,-1,1,-1
1320620,12-31 18:22:00:620,-2,-1,0,-2,-1,-1,0,-2
1320680,12-31 18:22:00:680,-2,-1,0,-1,-1,-2,-1,0
1320722,12-31 18:22:00:722,-1,0,-1,0,1,-2,-1,0
1320782,12-31 18:22:00:782,-2,1,-1,-1,0,0,1,-2
1320821,12-31 18:22:00:821,2,0,-1,1,-2,-1,0,-1
1320882,12-31 18:22:00:882,0,1,0,-2,0,-1,0,-1
1320920,12-31 18:22:00:920,2,0,-1,0,0,-2,-1,-1
1320980,12-31 18:22:00:980,1,-1,2,3,-1,1,1,1
1321022,12-31 18:22:01:22,-2,-2,-6,-8,-12,-1,-2,0
1321083,12-31 18:22:01:83,-5,2,5,12,15,16,3,7
1321135,12-31 18:22:01:135,-2,-1,-1,-3,-2,0,-2,1
1321188,12-31 18:22:01:188,-2,3,-2,-2,-6,-4,2,13
1321241,12-31 18:22:01:241,1,-1,0,0,1,2,0,0
1321280,12-31 18:22:01:280,-2,0,-1,-1,-2,-1,0,-3
1321340,12-31 18:22:01:340,1,0,0,0,-1,5,1,0
1321383,12-31 18:22:01:383,-2,-2,-1,-2,-4,0,-2,0
1321444,12-31 18:22:01:444,0,0,-1,-1,-1,-1,0,0
1321494,12-31 18:22:01:494,-2,0,-1,-1,0,0,0,1
1321542,12-31 18:22:01:542,1,-1,0,0,2,1,1,-1
1321585,12-31 18:22:01:585,-3,-1,-2,0,-3,-1,-1,0
1321645,12-31 18:22:01:645,-1,1,-2,-1,1,-1,-1,-1
1321698,12-31 18:22:01:698,-1,-2,1,-1,-1,-1,1,0
1321743,12-31 18:22:01:743,2,0,-1,-1,0,-1,-1,1
1321795,12-31 18:22:01:795,1,-1,0,0,0,0,-1,-1
1321842,12-31 18:22:01:842,-4,0,-1,-1,0,-1,-1,0
1321902,12-31 18:22:01:902,-1,-1,1,0,-2,1,-1,0
1321945,12-31 18:22:01:945,0,-1,-2,1,0,0,0,-1
1321997,12-31 18:22:01:997,-2,-1,-1,0,-1,0,-3,-1
1322045,12-31 18:22:02:45,-1,0,1,-1,-1,0,0,0
1322105,12-31 18:22:02:105,-1,-1,-3,-2,-1,-1,0,0
1322142,12-31 18:22:02:142,-1,0,0,2,-1,-1,0,0
1322202,12-31 18:22:02:202,0,0,0,0,-2,1,-1,-1
1322261,12-31 18:22:02:261,-2,-1,-2,-2,0,-1,-3,0
1322306,12-31 18:22:02:306,-2,0,2,0,-1,1,-1,-1
1322345,12-31 18:22:02:345,-1,0,1,-1,-3,-4,0,-1
1322405,12-31 18:22:02:405,1,-1,0,-2,-6,4,-2,-2
1322465,12-31 18:22:02:465,-1,-1,-2,5,9,2,1,-1
1322502,12-31 18:22:02:502,2,1,0,-2,-5,-4,-3,-2
1322562,12-31 18:22:02:562,-2,-2,-3,-2,-5,-3,-4,-1
1322620,12-31 18:22:02:620,0,0,-2,-1,0,2,0,-1
1322666,12-31 18:22:02:666,-2,0,-1,0,-2,-2,-1,0
1322705,12-31 18:22:02:705,-1,-2,0,1,-1,3,0,0
1322765,12-31 18:22:02:765,-2,-1,-1,0,3,-4,-2,-1
1322824,12-31 18:22:02:824,1,-1,-1,-1,-3,1,0,-1
1322867,12-31 18:22:02:867,0,-1,-1,0,-2,-2,-1,-1
1322920,12-31 18:22:02:920,1,-1,0,-1,0,0,-1,1
1322975,12-31 18:22:02:975,0,0,-2,-1,0,-2,1,0
1323027,12-31 18:22:03:27,-1,-2,-3,-1,-1,0,2,0
1323065,12-31 18:22:03:65,-1,1,1,-1,0,-1,-2,0
1323125,12-31 18:22:03:125,1,0,-1,-3,0,-1,1,0
1323183,12-31 18:22:03:183,0,-1,0,0,0,0,-1,0
1323228,12-31 18:22:03:228,-1,-1,-1,1,0,-1,-1,-1
1323280,12-31 18:22:03:280,0,0,-1,0,-1,1,0,0
1323327,12-31 18:22:03:327,0,0,-2,0,0,-2,-1,0
1323387,12-31 18:22:03:387,-2,0,-1,-1,-1,-1,0,-1
1323425,12-31 18:22:03:425,0,-1,0,0,-1,1,-1,-1
1323483,12-31 18:22:03:483,-1,-1,-1,0,-1,1,0,-1
1323528,12-31 18:22:03:528,-1,-2,1,-1,3,1,1,-1
1323588,12-31 18:22:03:588,-1,0,0,0,1,-2,-1,-1
1323626,12-31 18:22:03:626,-3,-3,-2,0,0,1,-1,2
1323686,12-31 18:22:03:686,0,-1,-4,-6,-8,-4,-3,1
1323746,12-31 18:22:03:746,-1,-4,5,7,3,2,-1,2
1323783,12-31 18:22:03:783,0,-1,-2,-5,-12,-6,-4,-2
1323843,12-31 18:22:03:843,-2,0,-1,-2,-15,-8,-1,-4
1323888,12-31 18:22:03:888,-1,-1,0,-2,-6,5,1,-4
1323948,12-31 18:22:03:948,0,-3,0,-1,-7,3,-2,0
1323986,12-31 18:22:03:986,0,0,0,0,-1,-3,-1,0
1324046,12-31 18:22:04:46,-3,-3,1,1,-1,-3,-1,0
1324083,12-31 18:22:04:83,-1,0,0,0,-1,1,0,1
1324143,12-31 18:22:04:143,0,0,-1,-1,3,0,0,0
1324188,12-31 18:22:04:188,0,0,0,0,-1,1,0,0
1324249,12-31 18:22:04:249,-4,0,-2,0,-1,0,0,0
1324286,12-31 18:22:04:286,-1,1,0,-2,3,-1,-1,-1
1324346,12-31 18:22:04:346,1,-1,-1,-1,-1,-2,0,0
1324390,12-31 18:22:04:390,1,0,-1,-2,-1,1,0,0
1324450,12-31 18:22:04:450,2,1,-2,-1,0,-2,0,-1
1324502,12-31 18:22:04:502,-1,-1,-2,0,1,-1,-1,-2
1324556,12-31 18:22:04:556,-4,-1,-2,0,-2,1,1,1
1324609,12-31 18:22:04:609,1,0,0,1,-1,-2,0,0
1324646,12-31 18:22:04:646,0,-1,0,0,-4,0,0,-1
1324706,12-31 18:22:04:706,-1,-1,0,-3,-1,-1,-1,0
1324752,12-31 18:22:04:752,-1,-1,-2,1,2,-1,0,-1
1324812,12-31 18:22:04:812,-1,-1,-1,0,-2,-1,-2,0
1324849,12-31 18:22:04:849,-1,0,-1,-2,-4,-1,-2,-1
1324909,12-31 18:22:04:909,0,0,-5,-3,-2,-6,0,-1
1324969,12-31 18:22:04:969,-3,-3,-7,1,28,-8,-4,-3
1325006,12-31 18:22:05:6,-1,-8,-5,2,26,1,-3,-2
1325066,12-31 18:22:05:66,0,0,-6,-6,5,5,-4,21
1325112,12-31 18:22:05:112,-1,1,2,-1,6,-16,-3,-7
1325172,12-31 18:22:05:172,4,0,-2,-3,-2,-1,2,1
1325210,12-31 18:22:05:210,1,0,0,1,6,-9,-1,-2
1325270,12-31 18:22:05:270,-1,0,1,0,-1,1,0,0
1325313,12-31 18:22:05:313,-1,0,-1,-1,0,-2,1,1
1325373,12-31 18:22:05:373,0,-1,-3,-4,-2,-5,0,-1
1325412,12-31 18:22:05:412,-1,-1,-2,-1,-1,4,0,1
1325472,12-31 18:22:05:472,-1,-1,-1,2,0,2,-1,0
1325532,12-31 18:22:05:532,-3,0,0,1,-2,1,0,-1
1325574,12-31 18:22:05:574,3,-1,0,-2,1,0,0,-1
1325628,12-31 18:22:05:628,-1,-1,0,0,-2,0,0,0
1325675,12-31 18:22:05:675,-1,0,-2,-1,-1,0,-1,0
1325733,12-31 18:22:05:733,-1,1,-2,-2,-4,-3,-1,0
1325772,12-31 18:22:05:772,2,-1,0,-1,0,1,-3,-1
1325834,12-31 18:22:05:834,-1,1,0,0,-1,0,1,1
1325876,12-31 18:22:05:876,-3,-1,-2,-1,1,-1,-2,-3
1325936,12-31 18:22:05:936,0,-1,-1,-1,-1,-1,-1,0
1325987,12-31 18:22:05:987,-1,0,0,-2,0,-1,0,-1
1326035,12-31 18:22:06:35,-2,-1,-2,-3,2,-2,-2,-3
1326077,12-31 18:22:06:77,0,1,-1,-3,-8,1,3,3
1326132,12-31 18:22:06:132,-1,-1,-1,-5,-20,-7,-4,-1
1326191,12-31 18:22:06:191,-1,-2,1,6,56,5,2,1
1326236,12-31 18:22:06:236,-4,-2,1,4,20,-1,1,1
1326287,12-31 18:22:06:287,7,2,-2,0,2,1,1,0
1326335,12-31 18:22:06:335,1,0,1,3,3,3,-1,-1
1326392,12-31 18:22:06:392,-1,0,0,-7,-47,-2,0,-2
1326432,12-31 18:22:06:432,0,-1,-1,0,4,-2,-1,0
1326497,12-31 18:22:06:497,-1,-1,-1,1,-1,-2,-1,0
1326550,12-31 18:22:06:550,-5,-1,0,-1,-3,-2,-1,-1
1326597,12-31 18:22:06:597,10,1,0,-1,-2,-1,-1,0
1326639,12-31 18:22:06:639,9,-1,-2,-1,0,-2,1,-1
1326695,12-31 18:22:06:695,1,-1,-1,2,-1,-1,-1,-1
1326755,12-31 18:22:06:755,0,0,-1,-2,-1,-1,0,-1
1326798,12-31 18:22:06:798,-4,0,0,0,-2,1,0,-1
1326849,12-31 18:22:06:849,-2,1,-1,-1,-1,0,0,1
1326897,12-31 18:22:06:897,-1,1,-2,0,1,0,-3,0
1326957,12-31 18:22:06:957,0,-2,1,0,-2,-3,0,2
1326995,12-31 18:22:06:995,-1,-1,-1,-1,-2,-2,-1,0
1327055,12-31 18:22:07:55,0,0,0,-1,0,0,-1,0
1327098,12-31 18:22:07:98,-1,1,1,1,-1,-1,-2,-1
1327158,12-31 18:22:07:158,0,-2,-1,-1,-1,0,0,0
1327209,12-31 18:22:07:209,0,-1,0,-1,1,0,0,-1
1327257,12-31 18:22:07:257,-1,-1,0,1,0,0,-2,-1
1327317,12-31 18:22:07:317,-2,-1,0,0,-1,-2,1,0
1327355,12-31 18:22:07:355,1,1,0,0,1,-1,1,0
1327420,12-31 18:22:07:420,-2,0,0,0,-1,1,0,0
1327466,12-31 18:22:07:466,1,2,2,0,1,4,-1,1
1327520,12-31 18:22:07:520,0,-1,1,-2,-1,0,-1,1
1327557,12-31 18:22:07:557,0,4,3,-1,-2,-1,-2,-1
1327617,12-31 18:22:07:617,-1,1,1,-2,-6,-1,-2,0
1327677,12-31 18:22:07:677,0,0,-1,1,0,2,1,0
1327721,12-31 18:22:07:721,0,-1,0,-3,-2,-2,0,-2
1327772,12-31 18:22:07:772,-2,0,-1,0,-1,-2,0,-1
1327820,12-31 18:22:07:820,0,0,0,1,0,0,0,0
1327880,12-31 18:22:07:880,-1,-1,0,-1,0,-1,-1,-1
1327916,12-31 18:22:07:916,1,1,0,1,1,-1,-1,1
1327976,12-31 18:22:07:976,-6,0,-1,0,0,-2,-1,0
1328021,12-31 18:22:08:21,5,1,-1,-1,-2,-2,-28,-18
1328081,12-31 18:22:08:81,-3,0,-1,-1,0,1,4,3
1328118,12-31 18:22:08:118,1,1,-1,-1,-2,-2,3,3
1328178,12-31 18:22:08:178,-2,-1,-1,-1,-1,0,0,-2
1328238,12-31 18:22:08:238,0,-1,1,-1,-2,-1,0,-1
1328276,12-31 18:22:08:276,-1,1,-1,-1,-1,-1,-1,-1
1328337,12-31 18:22:08:337,-1,0,-1,-5,1,0,-1,0
1328381,12-31 18:22:08:381,-1,0,0,-1,-1,-1,-1,-1
1328440,12-31 18:22:08:440,-1,1,-1,-1,-1,0,0,-2
1328478,12-31 18:22:08:478,0,0,-1,0,2,0,-1,-1
1328538,12-31 18:22:08:538,0,-1,-1,-1,2,0,1,-1
1328598,12-31 18:22:08:598,1,-1,1,-1,0,-1,1,0
1328636,12-31 18:22:08:636,-1,-1,-1,0,-1,1,0,0
1328696,12-31 18:22:08:696,0,1,0,3,2,1,2,-1
1328741,12-31 18:22:08:741,5,7,4,1,-4,-3,1,0
1328801,12-31 18:22:08:801,-1,-2,-2,-1,4,2,1,1
1328838,12-31 18:22:08:838,-2,-3,0,0,-2,2,2,-1
1328898,12-31 18:22:08:898,0,0,-1,0,-3,-1,0,3
1328958,12-31 18:22:08:958,-1,7,-1,2,3,1,5,1
1328996,12-31 18:22:08:996,1,-3,0,-1,-5,-5,7,6
1329056,12-31 18:22:09:56,0,0,0,1,2,2,-8,0
1329101,12-31 18:22:09:101,-2,-2,-3,-6,0,1,-3,0
1329161,12-31 18:22:09:161,1,-1,1,0,8,2,0,0
1329198,12-31 18:22:09:198,-1,-1,-1,-1,-4,-8,-1,0
1329259,12-31 18:22:09:259,-1,1,0,-3,-18,-2,0,0
1329303,12-31 18:22:09:303,0,0,-2,1,5,2,0,-1
1329364,12-31 18:22:09:364,-2,0,-1,0,2,-2,0,0
1329401,12-31 18:22:09:401,1,-1,1,0,0,6,1,1
1329461,12-31 18:22:09:461,-1,-1,-1,-2,-4,-4,-2,-2
1329521,12-31 18:22:09:521,-1,-2,1,-1,1,-2,0,-1
1329558,12-31 18:22:09:558,0,-1,-2,-1,2,3,1,1
1329617,12-31 18:22:09:617,1,0,0,-1,-4,-3,0,0
1329665,12-31 18:22:09:665,-1,0,0,1,-4,2,1,0
1329725,12-31 18:22:09:725,-1,-1,-1,-1,-3,1,-1,-1
1329762,12-31 18:22:09:762,0,0,-2,0,0,-2,0,-2
1329822,12-31 18:22:09:822,-2,-1,-2,-1,7,1,0,1
1329882,12-31 18:22:09:882,-1,0,0,-2,1,0,-4,-3
1329926,12-31 18:22:09:926,-1,0,-1,1,-11,2,1,0
1329977,12-31 18:22:09:977,1,-1,0,-2,-1,-1,-1,0
1330025,12-31 18:22:10:25,1,1,-3,-3,-1,-1,-3,0
1330085,12-31 18:22:10:85,-11,-3,0,-1,-1,-1,0,2
1330127,12-31 18:22:10:127,10,-3,-12,-2,-2,-2,0,2
1330187,12-31 18:22:10:187,-15,-9,-1,1,1,0,-8,-3
1330226,12-31 18:22:10:226,1,-1,1,-2,-4,2,8,1
1330286,12-31 18:22:10:286,-6,-1,-2,1,0,3,0,-1
1330337,12-31 18:22:10:337,-3,-3,-2,2,-1,-1,-4,1
1330385,12-31 18:22:10:385,-2,-2,-2,2,8,1,0,-2
1330443,12-31 18:22:10:443,-1,-4,-2,2,8,4,-4,-6
1330487,12-31 18:22:10:487,-2,3,7,-1,-1,4,12,10
1330540,12-31 18:22:10:540,33,6,1,1,-1,-1,0,3
1330599,12-31 18:22:10:599,9,-2,3,0,-3,-1,3,1
1330647,12-31 18:22:10:647,2,-1,-1,1,1,-2,1,9
1330685,12-31 18:22:10:685,-4,0,-1,-1,-2,0,-1,0
1330745,12-31 18:22:10:745,0,-1,1,-1,-2,-3,-2,2
1330803,12-31 18:22:10:803,-1,-1,0,0,-1,-2,1,-1
1330848,12-31 18:22:10:848,0,0,0,-2,-3,-2,-1,0
1330899,12-31 18:22:10:899,-4,0,0,0,-5,-1,0,0
1330947,12-31 18:22:10:947,-5,-1,0,-1,2,1,1,0
1331006,12-31 18:22:11:6,2,-1,1,1,-1,-1,0,0
1331045,12-31 18:22:11:45,0,0,0,0,-1,-1,1,0
1331105,12-31 18:22:11:105,0,-1,-1,-1,0,-2,-1,1
1331148,12-31 18:22:11:148,0,-1,0,-2,0,1,0,-1
1331199,12-31 18:22:11:199,0,-1,1,-1,-1,-1,0,-1
1331259,12-31 18:22:11:259,-1,-2,-1,-1,2,0,1,0
1331307,12-31 18:22:11:307,0,0,-1,-2,0,-1,0,0
1331366,12-31 18:22:11:366,-1,0,0,-2,-1,-1,-2,-1
1331409,12-31 18:22:11:409,-1,0,0,-1,0,0,0,0
1331463,12-31 18:22:11:463,0,-2,-2,0,-1,0,0,-2
1331510,12-31 18:22:11:510,5,14,2,-1,-9,-14,-7,-10
1331570,12-31 18:22:11:570,3,0,-2,-6,-7,-2,4,3
1331607,12-31 18:22:11:607,-1,-2,0,-1,-6,1,-3,2
1331667,12-31 18:22:11:667,0,-4,-1,-2,-1,6,1,0
1331711,12-31 18:22:11:711,-2,-3,-2,-1,-2,-1,-1,-1
1331771,12-31 18:22:11:771,1,0,-1,1,-1,1,0,-2
1331822,12-31 18:22:11:822,2,0,0,0,1,0,0,1
1331870,12-31 18:22:11:870,-1,0,0,0,1,1,0,-1
1331907,12-31 18:22:11:907,-1,-1,0,1,3,1,-1,-1
1331967,12-31 18:22:11:967,-1,-1,-3,-2,1,1,0,0
1332026,12-31 18:22:12:26,-3,-1,0,-2,0,-1,-1,0
1332071,12-31 18:22:12:71,-1,0,0,-4,-7,-4,-2,-2
1332122,12-31 18:22:12:122,1,-2,1,0,0,0,-1,-1
1332170,12-31 18:22:12:170,-1,-1,-1,-3,-1,-6,-2,-2
1332230,12-31 18:22:12:230,0,0,0,1,-2,-1,1,0
1332272,12-31 18:22:12:272,1,1,0,0,1,1,0,1
1332332,12-31 18:22:12:332,-2,-2,0,-2,-2,-1,-1,-1
1332372,12-31 18:22:12:372,0,-2,0,-2,-1,0,-2,0
1332431,12-31 18:22:12:431,0,0,0,-1,-4,-1,-1,0
1332468,12-31 18:22:12:468,-1,-1,0,0,-1,0,1,0
1332528,12-31 18:22:12:528,0,1,0,2,-1,-2,-2,-1
1332588,12-31 18:22:12:588,1,-2,0,1,2,0,0,1
1332632,12-31 18:22:12:632,-1,0,-1,0,0,1,-1,0
1332692,12-31 18:22:12:692,-1,-1,-1,-2,-2,0,1,0
1332731,12-31 18:22:12:731,0,0,1,-1,-4,-1,0,0
1332791,12-31 18:22:12:791,-1,-2,-5,-1,-1,-1,-1,-1
1332828,12-31 18:22:12:828,0,-4,-5,1,-1,3,0,-1
1332888,12-31 18:22:12:888,13,-6,14,1,-5,5,8,36
1332948,12-31 18:22:12:948,13,-6,3,1,3,-3,-8,3
1332993,12-31 18:22:12:993,11,2,3,3,-2,0,6,19
1333044,12-31 18:22:13:44,7,0,1,-1,3,-2,3,6
1333091,12-31 18:22:13:91,1,-1,0,-1,-4,1,1,1
1333151,12-31 18:22:13:151,5,4,1,-2,-1,-4,-2,19
1333188,12-31 18:22:13:188,-1,-1,-1,-1,-1,0,0,-6
1333248,12-31 18:22:13:248,-1,0,1,-2,1,-1,0,-3
1333308,12-31 18:22:13:308,2,-3,0,0,0,-1,0,-3
1333354,12-31 18:22:13:354,0,0,-1,-1,-1,1,-1,-2
1333391,12-31 18:22:13:391,-3,0,1,0,0,-1,0,-2
1333451,12-31 18:22:13:451,1,0,-1,-1,-1,0,-3,-1
1333488,12-31 18:22:13:488,0,-1,0,0,-1,-1,-1,-1
1333548,12-31 18:22:13:548,-23,-1,-1,-1,0,-1,-1,-1
1333608,12-31 18:22:13:608,-2,-1,-1,-1,-2,-2,-1,-1
1333654,12-31 18:22:13:654,3,-1,-1,-1,-1,-1,-2,-2
1333713,12-31 18:22:13:713,2,-2,-1,-1,-1,-3,0,-1
1333751,12-31 18:22:13:751,-2,-1,-2,-1,0,0,-1,-1
1333810,12-31 18:22:13:810,-1,0,-1,-2,0,-1,-1,1
1333855,12-31 18:22:13:855,-1,4,-1,-1,1,0,-2,-1
1333915,12-31 18:22:13:915,0,-1,-4,-2,5,1,1,2
1333967,12-31 18:22:13:967,-2,-7,0,-1,-1,1,-6,-6
1334014,12-31 18:22:14:14,2,-3,-3,-1,1,-2,5,7
1334051,12-31 18:22:14:51,2,1,-4,0,-3,-3,-2,-1
1334118,12-31 18:22:14:118,8,-1,1,3,1,1,6,8
1334170,12-31 18:22:14:170,-1,5,0,-1,-1,2,1,2
1334217,12-31 18:22:14:217,-1,1,0,-2,0,0,-2,-9
1334276,12-31 18:22:14:276,0,-2,-1,-5,-2,-10,-4,-2
1334316,12-31 18:22:14:316,1,-1,0,1,-5,-2,0,2
1334375,12-31 18:22:14:375,-18,-2,0,-2,-2,-1,-3,-24
1334426,12-31 18:22:14:426,-3,0,-2,-2,1,-1,-2,1
1334478,12-31 18:22:14:478,-4,0,-1,-2,-1,3,0,1
1334529,12-31 18:22:14:529,4,-3,-3,0,2,4,1,5
1334577,12-31 18:22:14:577,1,-2,-2,-1,9,0,-1,1
1334615,12-31 18:22:14:615,1,-1,-1,1,1,14,5,2
1334675,12-31 18:22:14:675,-2,-1,-2,-4,-7,-5,-2,1
1334733,12-31 18:22:14:733,-1,-2,1,-1,2,-3,-2,-1
1334778,12-31 18:22:14:778,0,-1,0,-1,5,-1,0,1
1334829,12-31 18:22:14:829,-3,0,-1,0,-1,-1,-1,-1
1334877,12-31 18:22:14:877,18,-1,-1,0,1,-1,-7,3
1334937,12-31 18:22:14:937,4,0,-2,0,-1,0,6,1
1334979,12-31 18:22:14:979,-9,0,-1,0,0,-2,-3,2
1335039,12-31 18:22:15:39,-5,-2,-1,-1,0,0,-1,1
1335078,12-31 18:22:15:78,-3,1,-1,-1,-1,1,0,-1
1335140,12-31 18:22:15:140,0,1,0,-1,-2,-1,-1,1
1335177,12-31 18:22:15:177,-1,0,1,0,0,0,0,0
1335242,12-31 18:22:15:242,0,1,0,0,-1,-2,-1,1
1335281,12-31 18:22:15:281,2,-1,-2,0,-3,1,-1,-1
1335341,12-31 18:22:15:341,6,5,-7,-5,-6,-3,-2,-3
1335392,12-31 18:22:15:392,-2,0,2,-1,-2,6,4,0
1335440,12-31 18:22:15:440,-1,1,0,0,-1,2,2,-4
1335498,12-31 18:22:15:498,-5,-3,0,3,1,0,-3,-1
1335537,12-31 18:22:15:537,-3,-2,1,-3,-3,-5,1,-5
1335597,12-31 18:22:15:597,-3,-1,-1,-1,-10,-4,2,2
1335648,12-31 18:22:15:648,-3,7,-2,2,-5,-1,13,-34
1335701,12-31 18:22:15:701,1,11,3,-4,-2,5,-12,20
1335740,12-31 18:22:15:740,-14,-7,0,0,1,-6,0,-24
1335800,12-31 18:22:15:800,0,-2,1,0,0,-3,2,-4
1335837,12-31 18:22:15:837,-5,-3,0,0,0,-3,1,-1
1335897,12-31 18:22:15:897,-2,0,-1,-1,-3,5,1,-2
1335941,12-31 18:22:15:941,0,-1,-1,-1,-2,-3,0,0
1336001,12-31 18:22:16:1,-1,-1,0,0,-1,-1,0,0
1336047,12-31 18:22:16:47,2,3,-1,-3,-3,0,-1,-2
1336100,12-31 18:22:16:100,-16,-2,0,0,0,-2,-1,0
1336149,12-31 18:22:16:149,16,-1,0,0,-1,2,3,1
1336202,12-31 18:22:16:202,5,3,1,-2,-2,0,-8,-4
1336254,12-31 18:22:16:254,9,-1,1,-1,-1,0,-3,-4
1336310,12-31 18:22:16:310,-2,-1,-1,1,-2,-1,2,1
1336362,12-31 18:22:16:362,3,0,0,0,0,-1,0,-2
1336400,12-31 18:22:16:400,2,-1,-3,-1,1,-1,-1,-2
1336466,12-31 18:22:16:466,-1,1,0,-1,-2,0,0,-3
1336503,12-31 18:22:16:503,-2,0,-2,-1,-1,0,-1,-1
1336554,12-31 18:22:16:554,0,-2,-1,0,-1,0,1,-3
1336614,12-31 18:22:16:614,0,-1,-1,0,-2,0,0,-1
1336662,12-31 18:22:16:662,-2,0,0,-1,-1,1,-2,0
1336720,12-31 18:22:16:720,1,0,-2,0,0,0,1,-1
1336760,12-31 18:22:16:760,0,0,-1,1,0,-1,0,0
1336818,12-31 18:22:16:818,-1,0,0,0,0,0,-1,0
1336869,12-31 18:22:16:869,1,-1,-2,-2,0,-1,-1,-2
1336923,12-31 18:22:16:923,-1,-1,-2,0,2,0,0,-2
1336960,12-31 18:22:16:960,-1,-2,-1,1,0,0,-2,0
1337020,12-31 18:22:17:20,6,3,-1,1,0,-1,0,0
1337066,12-31 18:22:17:66,-5,-3,1,-1,-2,0,0,2
1337118,12-31 18:22:17:118,3,-2,-1,-2,-2,0,-1,-2
1337178,12-31 18:22:17:178,-1,-2,0,-1,1,2,0,0
1337223,12-31 18:22:17:223,0,-1,-2,0,0,0,0,0
1337282,12-31 18:22:17:282,0,0,-2,-2,-1,-1,1,-1
1337320,12-31 18:22:17:320,-1,-1,0,1,-1,0,0,-1
1337380,12-31 18:22:17:380,-1,0,-1,-1,0,-1,1,0
1337418,12-31 18:22:17:418,0,0,-1,-1,-1,-2,-2,0
1337480,12-31 18:22:17:480,2,1,-1,-1,-1,-1,0,-1
1337538,12-31 18:22:17:538,-1,1,-1,0,-2,0,-1,1
1337583,12-31 18:22:17:583,-1,0,-1,0,1,1,-2,0
1337629,12-31 18:22:17:629,1,-1,-1,-1,0,-1,0,1
1337680,12-31 18:22:17:680,1,1,0,1,0,-1,1,1
1337741,12-31 18:22:17:741,-3,-2,-3,-6,8,0,-1,1
1337785,12-31 18:22:17:785,-4,-2,-4,-3,8,-5,-1,-1
1337845,12-31 18:22:17:845,2,0,1,-2,-8,-2,0,-2
1337897,12-31 18:22:17:897,-1,-3,0,-1,2,-1,0,0
1337943,12-31 18:22:17:943,-3,0,-2,-2,-1,-1,2,1
1337980,12-31 18:22:17:980,3,2,2,-2,-2,2,3,2
1338040,12-31 18:22:18:40,-4,5,10,5,1,3,-11,-12
1338100,12-31 18:22:18:100,-3,-1,0,5,0,0,4,2
1338146,12-31 18:22:18:146,-6,1,0,0,-1,3,25,-5
1338206,12-31 18:22:18:206,4,-2,-2,1,0,-4,-3,-1
1338243,12-31 18:22:18:243,-4,-1,0,0,1,-1,-3,-8
1338304,12-31 18:22:18:304,3,-1,-1,0,0,1,9,4
1338350,12-31 18:22:18:350,-1,0,0,-1,-3,-7,-3,-4
1338400,12-31 18:22:18:400,0,-2,-2,-1,-1,0,0,0
1338461,12-31 18:22:18:461,1,-1,-1,0,0,1,1,0
1338513,12-31 18:22:18:513,0,0,0,-1,0,0,-1,-4
1338544,12-31 18:22:18:544,-1,-1,1,-2,0,0,-1,1
1338609,12-31 18:22:18:609,0,0,0,0,-3,0,0,0
1338665,12-31 18:22:18:665,-1,-1,0,0,2,0,-1,0
1338708,12-31 18:22:18:708,-2,-1,1,-1,-1,-2,0,0
1338768,12-31 18:22:18:768,1,0,0,-1,1,0,-2,1
1338819,12-31 18:22:18:819,-1,-2,1,-2,-1,-1,0,-1
1338867,12-31 18:22:18:867,-1,0,0,0,-1,-1,-1,0
1338909,12-31 18:22:18:909,0,1,-2,-2,-1,-1,0,-1
1338969,12-31 18:22:18:969,0,0,-1,0,0,1,0,0
1339009,12-31 18:22:19:9,-2,-1,1,1,-1,-1,0,-2
1339070,12-31 18:22:19:70,-1,-1,0,-1,-1,0,-2,0
1339107,12-31 18:22:19:107,0,-2,0,-1,-1,-1,0,0
1339167,12-31 18:22:19:167,-1,0,0,-1,0,0,0,1
1339225,12-31 18:22:19:225,-1,-1,1,-1,-1,-1,-1,-1
1339271,12-31 18:22:19:271,-1,-2,-2,-1,-2,-2,-1,-1
1339322,12-31 18:22:19:322,6,8,-3,4,0,-1,1,0
1339369,12-31 18:22:19:369,-3,-8,-2,-3,0,-2,-1,-1
1339429,12-31 18:22:19:429,1,-13,-13,-5,-5,-3,0,-2
1339467,12-31 18:22:19:467,-1,3,6,3,2,1,-1,0
1339527,12-31 18:22:19:527,-3,-5,-2,0,1,-1,-1,-1
1339570,12-31 18:22:19:570,-2,-3,-1,-3,-1,-1,-1,1
1339630,12-31 18:22:19:630,0,1,-3,-1,4,0,-1,-1
1339682,12-31 18:22:19:682,1,0,0,-1,0,-2,-2,1
1339729,12-31 18:22:19:729,-2,1,-1,-2,-1,-1,0,-1
1339772,12-31 18:22:19:772,1,-1,-1,-1,-1,1,-1,0
1339832,12-31 18:22:19:832,0,-1,-1,0,-1,0,0,1
1339884,12-31 18:22:19:884,1,-2,-1,0,-1,1,-3,2
1339932,12-31 18:22:19:932,0,-2,-1,-1,1,0,1,-1
1339990,12-31 18:22:19:990,-3,0,0,0,-1,-1,-1,0
1340029,12-31 18:22:20:29,-1,-1,-1,-1,2,0,0,-1
1340089,12-31 18:22:20:89,-1,-1,-1,-2,-1,-1,-1,-2
1340133,12-31 18:22:20:133,0,0,0,-1,-2,-1,0,0
1340193,12-31 18:22:20:193,-1,-1,-2,-1,-1,0,-1,-1
1340244,12-31 18:22:20:244,1,-1,-1,-1,-1,-1,-2,-1
1340292,12-31 18:22:20:292,-1,0,-1,0,-2,-1,0,-1
1340329,12-31 18:22:20:329,1,-1,1,0,-1,-1,-1,1
1340389,12-31 18:22:20:389,0,0,-1,0,-2,-2,0,-1
1340449,12-31 18:22:20:449,1,-1,0,0,-1,0,0,-2
1340493,12-31 18:22:20:493,0,-2,-2,-1,0,-1,-1,-1
1340544,12-31 18:22:20:544,0,0,-1,0,-2,-1,-1,0
1340592,12-31 18:22:20:592,-3,-2,4,0,-2,0,-1,-2
1340652,12-31 18:22:20:652,-2,-2,-9,-9,-9,-2,-2,-2
1340689,12-31 18:22:20:689,0,21,7,11,1,3,1,0
1340757,12-31 18:22:20:757,-8,23,-10,-1,-16,-4,-2,-1
1340807,12-31 18:22:20:807,3,0,3,-1,-1,1,-1,2
1340854,12-31 18:22:20:854,2,-6,0,3,1,-3,0,1
1340892,12-31 18:22:20:892,-1,-4,-2,-1,2,0,0,-1
1340952,12-31 18:22:20:952,1,-2,-1,0,0,-4,-1,-1
1341012,12-31 18:22:21:12,-1,0,0,2,-1,0,2,1
1341055,12-31 18:22:21:55,1,-2,1,0,-2,-1,0,-1
1341107,12-31 18:22:21:107,-3,-2,-2,0,0,-1,-1,-2
1341154,12-31 18:22:21:154,-1,-3,0,-1,-1,-1,0,-1
1341214,12-31 18:22:21:214,0,0,0,-1,0,0,-3,-1
1341259,12-31 18:22:21:259,-2,1,-1,-1,-2,-1,0,-1
1341312,12-31 18:22:21:312,-1,-1,0,-1,3,0,-3,0
1341370,12-31 18:22:21:370,-1,1,-1,0,-3,0,0,1
1341415,12-31 18:22:21:415,1,0,1,0,-1,-1,-1,0
1341453,12-31 18:22:21:453,0,0,0,-1,-1,-1,0,1
1341513,12-31 18:22:21:513,-3,-1,-2,0,-2,-1,-2,-2
1341573,12-31 18:22:21:573,1,0,-1,-1,0,-1,1,-1
1341610,12-31 18:22:21:610,-1,-1,-3,-1,-1,-1,1,-1
1341670,12-31 18:22:21:670,-1,2,-3,1,0,0,1,-1
1341715,12-31 18:22:21:715,0,-11,-11,-2,-4,0,-1,-1
1341775,12-31 18:22:21:775,-2,-14,2,-30,-29,-4,-2,0
1341813,12-31 18:22:21:813,-3,0,1,7,65,4,-1,0
1341873,12-31 18:22:21:873,-8,14,10,22,17,16,6,2
1341933,12-31 18:22:21:933,6,2,0,-7,-20,-1,-3,-2
1341970,12-31 18:22:21:970,7,3,3,0,-4,-2,-1,1
1342030,12-31 18:22:22:30,3,-1,-2,-2,-5,-1,0,-1
1342075,12-31 18:22:22:75,1,-1,-1,-1,0,-2,-1,0
1342135,12-31 18:22:22:135,0,0,-1,-1,-1,-1,-2,0
1342173,12-31 18:22:22:173,0,-1,0,-1,-2,-1,1,-1
1342233,12-31 18:22:22:233,1,0,2,0,1,1,1,-1
1342270,12-31 18:22:22:270,0,0,1,1,-1,3,1,0
1342330,12-31 18:22:22:330,0,-2,0,-1,2,0,1,0
1342389,12-31 18:22:22:389,-4,0,-1,0,-2,2,-2,0
1342436,12-31 18:22:22:436,0,0,-2,0,1,-1,-1,-1
1342495,12-31 18:22:22:495,0,-1,1,-1,-1,-1,1,0
1342533,12-31 18:22:22:533,-2,0,-1,-1,-2,-2,-3,0
1342593,12-31 18:22:22:593,0,0,0,-2,1,0,-1,0
1342637,12-31 18:22:22:637,-3,-1,-1,-1,-1,-1,0,-1
1342697,12-31 18:22:22:697,0,0,0,0,-1,0,0,-1
1342736,12-31 18:22:22:736,0,-1,2,0,0,0,-1,-1
1342796,12-31 18:22:22:796,0,-1,-1,0,-2,0,0,0
1342833,12-31 18:22:22:833,0,0,-2,0,0,-1,0,-1
1342893,12-31 18:22:22:893,0,-2,-1,0,0,-2,-2,-1
1342953,12-31 18:22:22:953,0,-1,-1,-1,0,0,0,0
1342998,12-31 18:22:22:998,-2,-1,1,1,1,0,0,-2
1343036,12-31 18:22:23:36,-1,-2,-1,0,0,-1,0,-2
1343097,12-31 18:22:23:97,0,1,-2,-1,-2,-1,-2,0
1343157,12-31 18:22:23:157,-2,-1,-2,-1,0,-1,1,0
1343200,12-31 18:22:23:200,-3,-2,-1,-1,0,1,0,0
1343260,12-31 18:22:23:260,-2,-2,-1,0,-2,1,-2,0
1343311,12-31 18:22:23:311,-1,-1,0,0,-4,-1,-2,-1
1343359,12-31 18:22:23:359,-2,0,-1,0,4,0,0,0
1343397,12-31 18:22:23:397,1,-1,0,-1,-2,-3,-1,-2
1343462,12-31 18:22:23:462,-2,-2,-1,-1,-1,-3,-1,0
1343500,12-31 18:22:23:500,5,0,-2,1,1,1,0,0
1343552,12-31 18:22:23:552,-1,-1,1,-1,-1,-2,0,0
1343599,12-31 18:22:23:599,-2,-2,0,-1,-1,-1,-1,-1
1343659,12-31 18:22:23:659,1,-1,-2,0,-1,0,-1,2
1343718,12-31 18:22:23:718,0,-1,1,-3,-1,-1,0,-1
1343762,12-31 18:22:23:762,-1,0,0,0,1,-1,-2,1
1343814,12-31 18:22:23:814,-1,0,-2,0,-1,-2,1,-1
1343862,12-31 18:22:23:862,-1,0,-1,-1,-1,0,0,0
1343920,12-31 18:22:23:920,0,-2,0,0,2,0,-1,0
1343959,12-31 18:22:23:959,-1,-1,0,1,0,-1,-1,-1
1344019,12-31 18:22:24:19,-1,0,0,0,-2,-2,0,0
1344063,12-31 18:22:24:63,-1,0,-2,-2,0,0,-2,-1
1344123,12-31 18:22:24:123,0,-1,-1,0,-1,-1,0,0
1344162,12-31 18:22:24:162,2,0,-1,-2,0,1,-1,-1
1344222,12-31 18:22:24:222,0,0,1,0,-1,-1,0,-2
1344259,12-31 18:22:24:259,0,-1,-2,1,0,1,-1,-1
1344319,12-31 18:22:24:319,0,-1,1,0,-1,-1,0,-1
1344379,12-31 18:22:24:379,-1,0,0,-1,0,1,-3,0
1344423,12-31 18:22:24:423,0,0,1,-1,-1,-2,0,-1
1344483,12-31 18:22:24:483,-2,-1,-1,1,-2,0,-1,-2
1344534,12-31 18:22:24:534,1,-1,0,-1,-3,2,0,1
1344582,12-31 18:22:24:582,0,-1,-1,-1,0,0,0,-1
1344624,12-31 18:22:24:624,0,0,0,0,0,-1,0,0
1344684,12-31 18:22:24:684,0,1,0,0,0,0,0,0
1344737,12-31 18:22:24:737,-2,0,-1,0,-1,-2,0,0
1344784,12-31 18:22:24:784,0,-3,-3,-1,-1,0,0,0
1344843,12-31 18:22:24:843,-1,0,-1,-1,-1,-1,-1,0
1344882,12-31 18:22:24:882,0,0,-1,-1,-2,-2,1,0
1344940,12-31 18:22:24:940,-1,-1,-1,0,0,0,0,-1
1344985,12-31 18:22:24:985,0,0,1,-2,-1,1,-1,1
1345045,12-31 18:22:25:45,-2,-1,0,-1,-1,0,-1,-1
1345097,12-31 18:22:25:97,-1,0,0,1,2,0,-2,0
1345144,12-31 18:22:25:144,0,1,0,-1,1,0,0,-1
1345203,12-31 18:22:25:203,0,0,-1,0,-3,-1,0,-1
1345242,12-31 18:22:25:242,-1,-1,0,0,0,-2,-1,1
1345302,12-31 18:22:25:302,0,0,-2,-1,-2,1,-2,0
1345345,12-31 18:22:25:345,0,1,-2,-2,0,-1,-1,-1
1345405,12-31 18:22:25:405,-1,0,-1,0,1,-1,0,0
1345456,12-31 18:22:25:456,-2,-2,-1,-2,0,0,-1,-1
1345504,12-31 18:22:25:504,-1,0,-1,0,0,-1,-1,0
1345563,12-31 18:22:25:563,1,1,0,-1,-1,-2,0,-1
1345607,12-31 18:22:25:607,1,0,0,-3,-5,-3,0,0
1345660,12-31 18:22:25:660,-2,-1,-1,-2,-1,-1,-1,-1
1345707,12-31 18:22:25:707,-2,-3,-1,0,1,1,1,0
1345765,12-31 18:22:25:765,0,-1,-1,-1,0,-1,0,-1
1345804,12-31 18:22:25:804,-2,0,0,0,-1,0,0,-1
1345864,12-31 18:22:25:864,1,0,0,0,-1,-1,0,-1
1345908,12-31 18:22:25:908,0,1,-2,0,0,-1,0,0
1345968,12-31 18:22:25:968,-1,0,-2,0,0,-1,-1,0
1346005,12-31 18:22:26:5,1,0,0,-1,-1,-1,0,-1
1346065,12-31 18:22:26:65,-2,-1,0,-1,0,-4,1,0
1346125,12-31 18:22:26:125,-1,0,-1,-2,0,-1,-1,-2
1346163,12-31 18:22:26:163,1,-1,0,-1,-1,-1,-1,-1
1346223,12-31 18:22:26:223,0,1,1,-1,0,0,0,1
1346267,12-31 18:22:26:267,-2,0,-2,-1,1,-1,0,0
1346326,12-31 18:22:26:326,0,-1,-2,0,-3,-1,0,-1
1346379,12-31 18:22:26:379,-1,-3,-1,0,0,-2,-2,-2
1346425,12-31 18:22:26:425,0,0,0,-1,-1,-1,-1,0
1346463,12-31 18:22:26:463,-1,-2,0,-1,0,-1,-1,-1
1346530,12-31 18:22:26:530,-1,1,-3,0,-2,0,0,-1
1346583,12-31 18:22:26:583,-1,-1,-1,-2,0,-1,-1,-1
1346627,12-31 18:22:26:627,-1,-1,-1,1,0,-1,1,-1
1346665,12-31 18:22:26:665,0,0,-1,-1,-1,0,0,-1
1346725,12-31 18:22:26:725,-1,1,1,-1,0,-1,0,-1
1346784,12-31 18:22:26:784,-1,-1,2,-1,-1,1,-1,-1
1346823,12-31 18:22:26:823,-1,2,-1,0,-1,0,0,0
1346883,12-31 18:22:26:883,1,-2,-1,-1,1,-2,0,1
1346928,12-31 18:22:26:928,-2,0,1,-3,-1,0,-1,-3
1346988,12-31 18:22:26:988,1,1,1,0,-4,1,-1,1
1347025,12-31 18:22:27:25,0,-3,-1,-2,-1,1,-1,0
1347085,12-31 18:22:27:85,-1,-1,-1,-1,-1,-1,-2,0
1347130,12-31 18:22:27:130,0,0,0,0,-1,0,0,-1
1347190,12-31 18:22:27:190,0,0,-1,-1,-1,1,0,-1
1347242,12-31 18:22:27:242,0,-1,0,1,0,1,1,-1
1347288,12-31 18:22:27:288,-2,0,-1,0,-2,-2,-1,-1
1347325,12-31 18:22:27:325,2,-2,-2,-1,1,-1,1,1
1347386,12-31 18:22:27:386,1,0,-1,-2,0,-1,-1,-2
1347445,12-31 18:22:27:445,-1,0,2,0,-1,-2,-1,1
1347491,12-31 18:22:27:491,0,-1,-2,0,-1,-1,0,0
1347550,12-31 18:22:27:550,-1,0,-1,0,1,-1,-1,-1
1347589,12-31 18:22:27:589,-2,0,0,0,-1,1,-2,0
1347649,12-31 18:22:27:649,0,-1,-1,-2,0,-1,0,1
1347693,12-31 18:22:27:693,-3,-1,0,-1,-1,-1,0,-1
1347744,12-31 18:22:27:744,-1,-1,-2,-1,-1,-1,-2,1
1347769,12-31 18:22:27:769,-1,-1,0,0,1,1,-1,1
1347829,12-31 18:22:27:829,0,0,-1,1,0,0,1,-2
1347889,12-31 18:22:27:889,-1,-1,-2,-1,-1,-1,-2,-3
1347949,12-31 18:22:27:949,-2,-1,0,0,-1,-3,-1,0
1348009,12-31 18:22:28:9,0,-2,-1,0,0,0,0,0
1348053,12-31 18:22:28:53,0,0,-1,-4,-4,-6,-3,-2
1348104,12-31 18:22:28:104,-1,-2,-7,-2,5,-7,-6,-3
1348164,12-31 18:22:28:164,3,0,-1,15,10,5,5,3
1348212,12-31 18:22:28:212,0,1,0,1,1,1,2,4
1348249,12-31 18:22:28:249,-2,0,1,3,3,6,3,2
1348314,12-31 18:22:28:314,0,-1,1,-1,-1,1,2,-1
1348367,12-31 18:22:28:367,2,0,-2,-1,1,1,0,-1
1348414,12-31 18:22:28:414,0,1,0,0,-3,0,-1,0
1348452,12-31 18:22:28:452,0,-2,1,-1,-1,-3,1,0
1348512,12-31 18:22:28:512,0,0,-1,-1,0,0,0,-1
1348572,12-31 18:22:28:572,1,-1,-1,-1,-1,-1,-1,1
1348615,12-31 18:22:28:615,-4,0,-2,1,0,-2,0,-1
1348675,12-31 18:22:28:675,-2,0,1,0,1,0,0,0
1348726,12-31 18:22:28:726,-1,1,-2,-1,-1,0,1,-1
1348774,12-31 18:22:28:774,-1,-1,-1,0,-2,-1,-1,0
1348812,12-31 18:22:28:812,-2,-2,0,-1,-1,-1,0,0
1348872,12-31 18:22:28:872,0,0,0,2,-3,1,0,0
1348930,12-31 18:22:28:930,-1,0,0,-1,-1,-1,0,-2
1348975,12-31 18:22:28:975,0,0,-1,-3,-1,-2,0,1
1349026,12-31 18:22:29:26,0,2,0,-1,0,-1,-1,-1
1349074,12-31 18:22:29:74,0,-1,0,-1,0,0,0,1
1349134,12-31 18:22:29:134,0,-2,1,0,-1,-1,0,-1
1349172,12-31 18:22:29:172,-1,-1,-1,0,-2,-1,0,-1
1349236,12-31 18:22:29:236,0,0,0,-1,0,-3,0,-1
1349290,12-31 18:22:29:290,-1,0,-1,0,-1,0,0,-1
1349335,12-31 18:22:29:335,-2,-2,-3,-3,0,-13,-5,-3
1349374,12-31 18:22:29:374,0,0,1,-2,-6,-5,-2,-1
1349434,12-31 18:22:29:434,-2,-1,-1,-2,-1,5,-2,0
1349493,12-31 18:22:29:493,1,0,2,6,2,4,0,0
1349538,12-31 18:22:29:538,3,-2,-1,1,5,7,4,6
1349589,12-31 18:22:29:589,-3,-1,-1,-1,-1,1,-1,-1
1349637,12-31 18:22:29:637,-3,1,0,1,3,1,0,-1
1349697,12-31 18:22:29:697,1,-1,-2,1,-3,0,-2,0
1349734,12-31 18:22:29:734,-2,0,1,-1,-3,2,1,-1
1349794,12-31 18:22:29:794,-1,0,-1,-2,0,-1,1,1
1349838,12-31 18:22:29:838,-1,0,-1,-1,0,-1,-1,-1
1349898,12-31 18:22:29:898,0,0,0,-2,3,0,-2,-1
1349949,12-31 18:22:29:949,0,-1,-1,1,0,-1,-1,-1
1349997,12-31 18:22:29:997,-1,0,-2,-1,0,0,1,1
1350057,12-31 18:22:30:57,1,0,0,-1,-1,-2,0,0
1350099,12-31 18:22:30:99,0,0,0,-1,1,0,-1,-1
1350152,12-31 18:22:30:152,1,-1,-1,-1,-1,-2,2,-1
1350198,12-31 18:22:30:198,-2,1,-1,-2,2,0,-1,-1
1350258,12-31 18:22:30:258,-1,0,-1,1,-1,0,-2,0
1350310,12-31 18:22:30:310,0,-1,-1,-1,0,0,0,0
1350357,12-31 18:22:30:357,0,-1,0,0,0,-2,0,1
1350399,12-31 18:22:30:399,0,-2,1,-1,-1,0,2,-1
1350459,12-31 18:22:30:459,-1,0,0,1,-2,0,0,0
1350511,12-31 18:22:30:511,-1,-3,-1,-2,-1,1,-1,-1
1350558,12-31 18:22:30:558,-1,-1,0,-2,1,0,-1,-1
1350597,12-31 18:22:30:597,-2,0,-1,-2,-1,-2,-2,-1
1350655,12-31 18:22:30:655,0,-1,0,-2,0,0,0,-1
1350714,12-31 18:22:30:714,0,1,1,0,0,-2,-1,0
1350760,12-31 18:22:30:760,-2,-2,-2,-1,-1,-1,-1,-1
1350820,12-31 18:22:30:820,-1,0,-2,-1,-3,0,-1,0
1350858,12-31 18:22:30:858,0,0,-1,-1,1,-1,-2,-1
1350918,12-31 18:22:30:918,-1,-1,0,-1,-3,-1,1,0
1350955,12-31 18:22:30:955,-2,-1,-1,-1,0,0,0,0
1351015,12-31 18:22:31:15,-1,-1,-1,-1,-1,-1,-1,1
1351075,12-31 18:22:31:75,0,-2,-1,-1,-1,-1,1,0
1351119,12-31 18:22:31:119,-1,0,0,-1,-2,-1,-1,0
1351158,12-31 18:22:31:158,-1,-1,0,1,0,-1,1,0
1351218,12-31 18:22:31:218,-2,0,0,-1,-1,0,0,-2
1351278,12-31 18:22:31:278,1,-1,-1,0,-1,0,-1,-2
1351323,12-31 18:22:31:323,0,0,-1,0,0,0,-2,0
1351375,12-31 18:22:31:375,0,-1,-1,-2,1,1,1,0
1351421,12-31 18:22:31:421,-2,1,1,1,0,1,1,0
1351481,12-31 18:22:31:481,-1,0,0,-1,0,1,-1,-2
1351518,12-31 18:22:31:518,1,-1,-1,-1,-1,-1,-2,0
1351578,12-31 18:22:31:578,-1,-1,-1,-2,-1,0,1,0
1351615,12-31 18:22:31:615,0,-1,-1,-1,0,-1,-1,0
1351675,12-31 18:22:31:675,-3,0,-1,0,0,-1,0,0
1351735,12-31 18:22:31:735,1,0,0,0,-1,-1,-1,0
1351781,12-31 18:22:31:781,-1,0,-3,-1,-1,-1,0,-1
1351841,12-31 18:22:31:841,1,2,1,11,12,14,7,4
1351878,12-31 18:22:31:878,-4,-3,-1,-5,-2,-4,-3,-2
1351938,12-31 18:22:31:938,-1,-1,0,-2,-4,3,1,0
1351982,12-31 18:22:31:982,-1,-1,-2,-1,3,-3,-1,-2
1352043,12-31 18:22:32:43,0,-1,-2,-1,-2,0,-1,0
1352094,12-31 18:22:32:94,0,-1,-1,-1,-3,-2,1,0
1352142,12-31 18:22:32:142,0,0,-2,0,-2,-1,0,-1
1352184,12-31 18:22:32:184,1,0,0,1,-3,-2,-1,0
1352244,12-31 18:22:32:244,1,1,-1,0,-1,0,1,-1
1352297,12-31 18:22:32:297,-1,-2,0,0,1,1,0,1
1352344,12-31 18:22:32:344,2,-1,-2,0,0,-2,-1,-1
1352389,12-31 18:22:32:389,-1,1,0,-2,0,0,-1,0
1352442,12-31 18:22:32:442,-2,-1,-1,-1,-2,0,-1,0
1352500,12-31 18:22:32:500,0,0,0,1,1,-2,-1,0
1352545,12-31 18:22:32:545,-1,0,-1,0,-1,0,-3,-1
1352596,12-31 18:22:32:596,-1,0,-1,0,-2,-1,1,-1
1352644,12-31 18:22:32:644,0,2,-2,0,0,2,5,-4
1352702,12-31 18:22:32:702,0,-1,0,0,0,0,-1,1
1352742,12-31 18:22:32:742,-1,1,0,0,-2,-2,0,3
1352802,12-31 18:22:32:802,0,-1,0,-1,0,-2,-1,-1
1352845,12-31 18:22:32:845,0,0,0,0,1,-1,0,1
1352896,12-31 18:22:32:896,-1,-3,-1,-1,0,-1,-2,-2
1352945,12-31 18:22:32:945,-1,1,2,4,1,-3,0,1
1353004,12-31 18:22:33:4,1,1,-1,-2,-3,0,-1,1
1353064,12-31 18:22:33:64,2,-1,0,-3,-2,-2,-2,0
1353106,12-31 18:22:33:106,-1,1,-1,-1,0,1,-1,-1
1353159,12-31 18:22:33:159,0,-1,0,1,-1,-1,0,-2
1353207,12-31 18:22:33:207,0,-1,-1,-1,-1,-1,-1,0
1353244,12-31 18:22:33:244,-1,3,1,0,1,1,0,-1
1353304,12-31 18:22:33:304,-4,5,-5,-9,-1,-1,-2,-2
1353364,12-31 18:22:33:364,-1,-1,-5,-2,-1,0,-3,-3
1353408,12-31 18:22:33:408,-19,-10,-1,-7,-5,-3,-13,-18
1353468,12-31 18:22:33:468,-3,-2,-4,1,8,0,1,3
1353519,12-31 18:22:33:519,8,7,3,-1,-5,-2,-10,-1
1353572,12-31 18:22:33:572,-6,-1,3,0,6,3,13,-13
1353625,12-31 18:22:33:625,-1,3,3,-1,-10,-4,-4,4
1353664,12-31 18:22:33:664,0,-7,5,3,-11,-5,-1,1
1353724,12-31 18:22:33:724,-3,4,2,37,17,5,-3,-3
1353768,12-31 18:22:33:768,-9,-4,-3,-23,-18,0,-5,-8
1353828,12-31 18:22:33:828,-2,25,5,-13,-4,-3,0,4
1353879,12-31 18:22:33:879,19,-5,-21,-33,-8,-3,0,11
1353927,12-31 18:22:33:927,8,-8,-1,19,9,6,6,5
1353969,12-31 18:22:33:969,4,-4,-10,-13,-10,-3,-18,-14
1354029,12-31 18:22:34:29,-7,0,-6,1,1,0,10,7
1354068,12-31 18:22:34:68,29,-9,2,0,1,10,1,12
1354129,12-31 18:22:34:129,-17,-19,-13,-3,1,-1,-7,-21
1354167,12-31 18:22:34:167,-5,13,2,2,-1,-5,14,5
1354226,12-31 18:22:34:226,-7,8,-7,-7,-1,-4,-4,0
1354269,12-31 18:22:34:269,1,-15,-22,-9,-5,2,-5,5
1354331,12-31 18:22:34:331,-11,-10,-3,-2,0,3,-3,1
1354381,12-31 18:22:34:381,6,1,2,2,2,-2,0,1
1354429,12-31 18:22:34:429,9,-3,-1,2,1,0,-6,-1
1354466,12-31 18:22:34:466,-3,0,3,-3,3,2,2,-2
1354527,12-31 18:22:34:527,2,-3,9,0,-2,-2,-2,-1
1354585,12-31 18:22:34:585,6,7,0,2,2,3,2,0
1354630,12-31 18:22:34:630,0,-14,0,-5,-2,-4,-2,-1
1354681,12-31 18:22:34:681,-5,-9,-2,-1,1,2,0,1
1354729,12-31 18:22:34:729,1,-11,-3,0,-1,-1,-5,-4
1354789,12-31 18:22:34:789,-19,-8,-7,-1,-2,0,-2,-5
1354827,12-31 18:22:34:827,20,8,7,7,1,1,0,10
1354885,12-31 18:22:34:885,0,-15,-2,0,0,1,1,-7
1354937,12-31 18:22:34:937,8,2,3,-2,-1,-3,-2,1
1354990,12-31 18:22:34:990,-11,7,2,-3,-1,-3,0,-4
1355028,12-31 18:22:35:28,-5,-7,-1,-2,-3,1,-3,-2
1355088,12-31 18:22:35:88,-4,0,2,1,3,3,1,-3
1355125,12-31 18:22:35:125,-9,-2,-5,-4,-1,-1,0,-3
1355185,12-31 18:22:35:185,9,-8,1,-3,-3,-2,-4,0
1355245,12-31 18:22:35:245,-7,-15,-3,-1,-1,1,2,4
1355290,12-31 18:22:35:290,3,8,10,1,1,-3,-2,-2
1355349,12-31 18:22:35:349,27,19,10,1,-2,-3,-1,10
1355388,12-31 18:22:35:388,7,9,-13,-2,-1,-3,1,26
1355448,12-31 18:22:35:448,-18,-25,-1,-2,0,0,-1,-11
1355485,12-31 18:22:35:485,-6,-2,-7,-5,0,1,0,-3
1355545,12-31 18:22:35:545,-6,14,-3,-4,-1,0,0,-1
1355604,12-31 18:22:35:604,-8,-9,0,0,1,0,-1,-4
1355651,12-31 18:22:35:651,-1,-3,-3,-5,-2,-2,-2,2
1355688,12-31 18:22:35:688,-19,-17,-12,-4,-4,-2,-1,-6
1355747,12-31 18:22:35:747,-8,16,11,1,0,2,-1,-3
1355808,12-31 18:22:35:808,7,3,0,1,-1,-1,1,0
1355852,12-31 18:22:35:852,7,-10,1,-1,-1,-1,-2,-6
1355904,12-31 18:22:35:904,-11,-4,-10,-1,2,-2,-3,-11
1355928,12-31 18:22:35:928,5,18,10,3,-2,-2,-3,-2
1356011,12-31 18:22:36:11,-23,-19,0,-1,0,0,-3,-10
1356048,12-31 18:22:36:48,3,1,5,0,-1,0,-1,3
1356108,12-31 18:22:36:108,5,-1,-1,1,1,2,3,-2
1356153,12-31 18:22:36:153,-1,-1,1,-3,-2,0,-1,-6
1356213,12-31 18:22:36:213,2,-17,-5,-1,1,-2,-1,-3
1356251,12-31 18:22:36:251,11,2,-8,-2,2,2,-1,1
